"","location","scale","skewness","shape","shape2"
"1",1.11852723235706,41.3987783926731,0.509801135755031,7.76056636346271,5.93225088961049
"2",1.11852723235706,39.4956547195772,0.509800913904412,7.76056636346271,5.93322690772704
"3",1.11852723235706,38.5707251645872,0.509805470697872,7.76340630284893,5.9332167576559
"4",1.11852723235706,36.9772583860985,0.509800958178875,7.76071618034888,5.93671985482383
"5",1.11852723235706,36.2575422382683,0.509805912558964,7.76364353704631,5.93667334025937
"6",1.11852723235706,40.0977892581513,0.509829123699489,7.75816977874385,5.93662731035764
"7",1.11852723235706,42.9025539831604,0.509782787064168,7.76043985913431,5.95166740061453
"8",1.11852723235706,40.8615565634701,0.509798376443732,7.76055968763929,5.95180337585074
"9",1.11852723235706,40.1836487777806,0.509806573997328,7.76414102577475,5.95159911947047
"10",1.11852723235706,38.4611543681351,0.509801226992742,7.7607549237087,5.95449176816469
"11",1.11852723235706,37.8265830105996,0.509806711419784,7.76402111877922,5.95425927635026
"12",1.11852723235706,36.1569595430925,0.509801815215198,7.76074860122665,5.95463779839056
"13",1.11852723235706,39.6328365290056,0.509826843485539,7.7599175743653,5.954403771821
"14",1.11852723235706,38.5010783518852,0.509801365281567,7.76053212383572,5.96840185252592
"15",1.11852723235706,39.8108972567091,0.509816137724633,7.76579876560535,5.96802268817654
"16",1.11852723235706,38.6592594601103,0.509806674398796,7.76310410288431,5.96764753468213
"17",1.11852723235706,37.8405007149186,0.509806638105703,7.76371234356161,5.96727634890995
"18",1.11852723235706,37.538979260318,0.509809043850191,7.76484085175501,5.96690908820568
"19",1.11852723235706,45.7236318319436,0.509754886311018,7.76079182081833,5.58984742304912
"20",1.11852723235706,45.0342875596063,0.509787423150911,7.76057826070559,5.61182721592935
"21",1.11852723235706,42.8243821565892,0.509799114569451,7.76056699128812,5.61493362082301
"22",1.11852723235706,49.9823646678789,0.509839059909387,7.73699309551869,5.61795890895725
"23",1.11852723235706,47.4125233613163,0.509806745557037,7.75936679378529,5.62095811867778
"24",1.11852723235706,46.4865470498864,0.509807965211015,7.76415392761403,5.62393141858787
"25",1.11852723235706,49.6065177992865,0.509779456864838,7.76075560398933,5.63761967224131
"26",1.11852723235706,60.8142480974215,0.509846130121745,7.69948475851013,5.64044802143871
"27",1.11852723235706,62.0652592452788,0.509792372101207,7.75732020851472,5.66932572543919
"28",1.11852723235706,58.5435657876071,0.509799922082229,7.76044646901487,5.67187355095112
"29",1.11852723235706,57.4271403389709,0.509793541820312,7.76056003645741,5.69539273643344
"30",1.11852723235706,54.2617111382777,0.509800034531538,7.76057317479802,5.69770540085611
"31",1.11852723235706,52.7794984727643,0.509795593318427,7.76056672290161,5.71688374543306
"32",1.11852723235706,50.0085744608133,0.509800205117333,7.76056638243057,5.71945292975718
"33",1.11852723235706,51.7046374859088,0.509817231434663,7.76558998070912,5.72154497504729
"34",1.11852723235706,52.4679918164826,0.509816375677996,7.76616251604744,5.72361767763994
"35",1.11852723235706,54.5015397368552,0.509785326411962,7.76086148713563,5.75041020065745
"36",1.11852723235706,51.719161580795,0.509798241616929,7.76058193682888,5.75444034456721
"37",1.11852723235706,49.4371680965889,0.509798977846004,7.76056718527924,5.76264157712285
"38",1.11852723235706,47.1045707940976,0.509799941545539,7.76056640683057,5.76769376291759
"39",1.11852723235706,44.7418963979449,0.509800939358325,7.76056636575127,5.76941899199694
"40",1.11852723235706,43.2624239232439,0.509797866874797,7.76056636358348,5.78263287357521
"41",1.11852723235706,41.614880558571,0.509802632283971,7.76196887503922,5.78412970827723
"42",1.11852723235706,43.0608456344666,0.509785253966732,7.76064036312475,5.81418445326021
"43",1.11852723235706,41.0040260104481,0.50979886588083,7.76061031171253,5.81537564697891
"44",1.11852723235706,39.3994659745832,0.509799236653777,7.76056868263251,5.8226690265562
"45",1.11852723235706,38.0485543116555,0.509798512919713,7.76056648584698,5.83275626097931
"46",1.11852723235706,37.4989375744219,0.509806653139998,7.76416840708446,5.83376499566642
"47",1.11852723235706,35.915989154015,0.50980240854457,7.76110428623224,5.83476376641805
"48",1.11852723235706,34.9589008155436,0.509804601722044,7.76281799997689,5.8357526662361
"49",1.11852723235706,33.7320755644169,0.509803154519969,7.76177611068085,5.83673178736721
"50",1.11852723235706,32.9414195907582,0.5098050208543,7.76303557063296,5.8377012213065
"51",1.11852723235706,36.8730798076186,0.509830789573193,7.75576093232319,5.83866105880126
"52",1.11852723235706,37.8045153868244,0.509818631836269,7.76564814735932,5.83961138985475
"53",1.11852723235706,36.2072084741306,0.509804192718656,7.76120599088765,5.84055230373003
"54",1.11852723235706,39.7268555332814,0.509774751714035,7.76060011459606,5.8316889522455
"55",1.11852723235706,40.2546881211086,0.509808598172715,7.76577702131779,5.83270822345069
"56",1.11852723235706,45.2169437178108,0.50983295156637,7.75340689522743,5.8337174324988
"57",1.11852723235706,42.9952608873404,0.509805765480687,7.76018824232838,5.83481386198937
"58",1.11852723235706,47.7521510387811,0.509771730884217,7.76054640886643,5.80021530278425
"59",1.11852723235706,45.4060304049403,0.509796532886268,7.76056531044157,5.80275253994695
"60",1.11852723235706,43.3776099086396,0.509801384062847,7.76124442840242,5.80405510978327
"61",1.11852723235706,45.9574590871945,0.509780250331445,7.76060214266541,5.82442726772668
"62",1.11852723235706,46.8856889308719,0.509784238684579,7.76056825154983,5.85610844286026
"63",1.11852723235706,44.7183578895191,0.509799437915586,7.76113837445475,5.85688510884334
"64",1.11852723235706,53.8570892756059,0.509754792510289,7.76059654692306,5.53816749689997
"65",1.11852723235706,55.7596141466914,0.509776834428861,7.76056795626062,5.56369221829745
"66",1.11852723235706,55.2483909234145,0.509806359302108,7.76524101724001,5.56715045111454
"67",1.11852723235706,55.10134674301,0.509791540705343,7.76081291618951,5.59386422577595
"68",1.11852723235706,52.1216629078234,0.509799717851513,7.76057937386358,5.59711945677485
"69",1.11852723235706,51.8341248294131,0.509791426171186,7.76056705003012,5.62322380248117
"70",1.11852723235706,49.8119983329028,0.509796928860669,7.76056639969338,5.63518709232177
"71",1.11852723235706,51.7112954048129,0.509817496419134,7.76540999357294,5.63803671094091
"72",1.11852723235706,49.0946667677028,0.50980312196872,7.76082182346953,5.64229119321912
"73",1.11852723235706,51.9687050407694,0.509780045076367,7.76057984388023,5.66041567093755
"74",1.11852723235706,49.2627770459107,0.509797921174198,7.76056707483317,5.66351207652802
"75",1.11852723235706,47.3510606021781,0.50979809660791,7.76056640100225,5.67475894084463
"76",1.11852723235706,45.1785730561123,0.509799765876591,7.7605663654437,5.68056233734278
"77",1.11852723235706,43.9738660657062,0.509805337002871,7.76342468363985,5.68300928925955
"78",1.11852723235706,48.4861793475816,0.509829424482327,7.75767966439495,5.68543417431622
"79",1.11852723235706,46.3090573585469,0.509804026787884,7.76041397975113,5.69228365750265
"80",1.11852723235706,45.8242336428047,0.50979363379897,7.76055832192149,5.71692019341609
"81",1.11852723235706,43.9105709474552,0.509798439430732,7.76056593910427,5.72482373627881
"82",1.11852723235706,42.8992273306465,0.509795581729767,7.760566341069,5.74354247455046
"83",1.11852723235706,46.2346884353586,0.50982359657299,7.76206738305111,5.74541026075075
"84",1.11852723235706,53.4177862528408,0.509841109649143,7.74106382062928,5.74726051961626
"85",1.11852723235706,54.6277915823797,0.509821480306084,7.76481712048654,5.74909339596575
"86",1.11852723235706,53.1643733239615,0.509809420151445,7.76411373947503,5.75090903383417
"87",1.11852723235706,60.5770945575497,0.509766186821133,7.76075348496605,5.65048261265329
"88",1.11852723235706,58.7502944559028,0.509801190133721,7.76382875074186,5.65319789156167
"89",1.11852723235706,60.9353744126838,0.509782823537358,7.76073845764005,5.6787800068874
"90",1.11852723235706,57.5663286613122,0.509798724335804,7.76077599003467,5.68124300957012
"91",1.11852723235706,56.4281694182199,0.509807697611582,7.76461177313291,5.68368382669777
"92",1.11852723235706,57.3220367511088,0.509815609336414,7.76611360491589,5.68610262243773
"93",1.11852723235706,54.3001672240118,0.509803729796499,7.76121519325427,5.68849956049763
"94",1.11852723235706,51.6800179187315,0.509802609188792,7.76140114787056,5.69087480410818
"95",1.11852723235706,61.029205996533,0.509842691809463,7.72759517415235,5.6932285160064
"96",1.11852723235706,65.2773510668792,0.509782690570962,7.75881982949991,5.69901790033711
"97",1.11852723235706,66.2428076380537,0.509812472784279,7.7657894806348,5.70129754132403
"98",1.11852723235706,63.2534561853052,0.509800002137078,7.76084182618283,5.71317325179935
"99",1.11852723235706,60.1238728506222,0.509799304942529,7.76058089937384,5.72132016982812
"100",1.11852723235706,69.040797322642,0.509762565681317,7.76056713053216,5.59097736011153
"101",1.11852723235706,66.2161573390257,0.509799208707165,7.76304312930757,5.59420713040027
"102",1.11852723235706,68.5988702598054,0.509818837479447,7.76522873702829,5.59740954330046
"103",1.11852723235706,76.912988506523,0.509769411895199,7.76081226884705,5.52971151592474
"104",1.11852723235706,73.5179771603238,0.509792741392416,7.76057933970477,5.5442793684446
"105",1.11852723235706,80.8694546971733,0.509829657171979,7.75465808633157,5.54789722529336
"106",1.11852723235706,77.1539742388074,0.509808808993159,7.76260856610557,5.55148552006882
"107",1.11852723235706,78.5994936404858,0.509786052456523,7.76067410675819,5.57859455907981
"108",1.11852723235706,74.6773627547481,0.509801512400768,7.76236763016029,5.5819286025377
"109",1.11852723235706,77.8890854574958,0.50978055598703,7.7606613979947,5.6018299661504
"110",1.11852723235706,73.3900360539198,0.509797108203894,7.76057137845024,5.60837803540923
"111",1.11852723235706,69.2905620550797,0.509801612276941,7.76134706425001,5.61145963771537
"112",1.11852723235706,65.8936034954242,0.509798982724752,7.76060755792835,5.62175764833712
"113",1.11852723235706,62.0386445125587,0.50980083172852,7.76057676996361,5.62472403177566
"114",1.11852723235706,58.5875756079604,0.509801378774073,7.76078283964502,5.62766471935773
"115",1.11852723235706,55.3272055324739,0.509801168712838,7.7605777867865,5.63058899311423
"116",1.11852723235706,52.3662979986415,0.509800989595247,7.76056696627913,5.63401010130786
"117",1.11852723235706,56.5888893679047,0.509825866757436,7.76076255652659,5.63686999797006
"118",1.11852723235706,53.5312818095337,0.509804593184234,7.76057671648208,5.64026948594213
"119",1.11852723235706,53.4117745801341,0.509811527841818,7.7655241188931,5.64307462499498
"120",1.11852723235706,59.5408617736788,0.509770745230111,7.76082783918307,5.59788946756026
"121",1.11852723235706,63.2809375133805,0.509818953656187,7.76285266912866,5.60106060919661
"122",1.11852723235706,68.9538629953311,0.509830979974042,7.75818910633243,5.6042047522171
"123",1.11852723235706,66.6130988009152,0.509810566051925,7.76364366987183,5.60732206400523
"124",1.11852723235706,62.9059579300498,0.50980185814901,7.76072869788431,5.61264734434611
"125",1.11852723235706,59.6769842373196,0.509802449103607,7.76145531371876,5.61569230266798
"126",1.11852723235706,57.5535349471467,0.509797127157914,7.76061326923847,5.63157930533306
"127",1.11852723235706,61.0312504306231,0.509778010585006,7.76056883870171,5.64578558936264
"128",1.11852723235706,60.2761372990219,0.509788797190004,7.76056649408286,5.67167061605618
"129",1.11852723235706,57.1636964838301,0.509800268893089,7.76125604750101,5.67419745339827
"130",1.11852723235706,54.0279651070668,0.509801048580881,7.7606327394279,5.67670163712087
"131",1.11852723235706,51.9380166470762,0.509798057965304,7.76056986614458,5.68944520377305
"132",1.11852723235706,49.2019579671928,0.509800684487658,7.76056654830174,5.69181604780626
"133",1.11852723235706,46.8669252213628,0.509801837006187,7.7611338363274,5.69416121803289
"134",1.11852723235706,51.6598789176764,0.509829166300999,7.75723364068929,5.69648508332566
"135",1.11852723235706,49.0355785467505,0.509805582139167,7.76065039341386,5.69878780517238
"136",1.11852723235706,49.152407587562,0.509791050785201,7.76057079774234,5.72743936906559
"137",1.11852723235706,48.59000667326,0.509807388595563,7.76490541899549,5.72945743658358
"138",1.11852723235706,46.4369257531145,0.509800672377097,7.76079522471579,5.73652629110392
"139",1.11852723235706,44.7557974142675,0.50980375630923,7.76244048191511,5.73845973875208
"140",1.11852723235706,43.7955899991297,0.509795947150801,7.7606652408151,5.75829202441897
"141",1.11852723235706,47.3343607021814,0.509824281944824,7.76154144017257,5.76002085896206
"142",1.11852723235706,44.9582348993924,0.509804557738719,7.76064561804206,5.76173332564556
"143",1.11852723235706,42.7567900130533,0.509801663749543,7.76059137917722,5.76342956275078
"144",1.11852723235706,46.4817863842597,0.509826094038985,7.76064010081311,5.76510970774051
"145",1.11852723235706,53.5480137023322,0.509767164255734,7.76057025460405,5.64195876900947
"146",1.11852723235706,51.1816234095298,0.509797992142278,7.76186935894436,5.64474908890239
"147",1.11852723235706,49.4707173690737,0.509796823009983,7.76063511321668,5.65975511774012
"148",1.11852723235706,47.2096395964553,0.50980164399227,7.76140218350358,5.66238826279522
"149",1.11852723235706,50.422304279225,0.509823255636523,7.76303527421443,5.66499798910365
"150",1.11852723235706,48.049466494908,0.509803366277801,7.7606966128119,5.67113501709651
"151",1.11852723235706,45.9405326654078,0.509800055333937,7.76057323671404,5.67860425920949
"152",1.11852723235706,50.4498910375557,0.509828106673301,7.7582015446664,5.68106884356
"153",1.11852723235706,50.1192456631409,0.509813861054201,7.76511717552007,5.68351123068078
"154",1.11852723235706,48.6929362145692,0.50980756127749,7.76375147096612,5.68593158477117
"155",1.11852723235706,46.2318234174454,0.509802182874983,7.76081547720242,5.68833006957203
"156",1.11852723235706,44.7601800676558,0.509797632538239,7.76057950900243,5.70282174018543
"157",1.11852723235706,45.234289562979,0.509812029364934,7.76578675329967,5.70506664686272
"158",1.11852723235706,45.7872182956781,0.509814489036402,7.76610134249855,5.70729101453612
"159",1.11852723235706,43.5535539132487,0.509803241933574,7.76097381894669,5.70949500195695
"160",1.11852723235706,41.4946397838305,0.509801229859598,7.76058786418346,5.71248016253675
"161",1.11852723235706,46.2873005309257,0.509830720282468,7.75492452335722,5.71463649297862
"162",1.11852723235706,45.3291426513982,0.509811129493259,7.76376252571575,5.71677297347634
"163",1.11852723235706,43.9096457758033,0.509806116488436,7.7630992822367,5.71888976002035
"164",1.11852723235706,47.2949255856455,0.509777660284918,7.76069998862527,5.72610564936084
"165",1.11852723235706,47.825939425235,0.5098094969085,7.76583636107874,5.72813609672471
"166",1.11852723235706,45.9547699052564,0.509804621542509,7.76243560819694,5.73014769299064
"167",1.11852723235706,49.8577136261213,0.509775795119067,7.76066498373581,5.72866220467997
"168",1.11852723235706,47.5290059424505,0.509798409702313,7.76129143016755,5.7306689125617
"169",1.11852723235706,45.6637919042543,0.509798439574251,7.76060462258395,5.74088345698076
"170",1.11852723235706,45.7815916107679,0.509810751443751,7.76555236818786,5.74277616100033
"171",1.11852723235706,45.5141813074027,0.509793764821425,7.76082932822067,5.76933565922274
"172",1.11852723235706,44.1320441915692,0.509803780526935,7.76306213507245,5.7709596466597
"173",1.11852723235706,47.3997728022883,0.509777846857551,7.76069802947229,5.78051741380498
"174",1.11852723235706,45.0100717382462,0.509797730221722,7.76057375947405,5.78203454351294
"175",1.11852723235706,42.8309640423822,0.509800779872137,7.76067404612738,5.78353712092572
"176",1.11852723235706,41.2485028759089,0.509803230652401,7.76208786783265,5.78502527296311
"177",1.11852723235706,39.7517469237142,0.509803533114455,7.76212584093104,5.78649912570287
"178",1.11852723235706,41.2826639337303,0.509817424952425,7.76573170894067,5.78795880438044
"179",1.11852723235706,41.3605086378476,0.50981290320477,7.7656777011661,5.78940443338874
"180",1.11852723235706,42.5075922272894,0.509788114400076,7.76083593448237,5.82044880373098
"181",1.11852723235706,40.9256538843863,0.509797091697034,7.76058058848391,5.82981103900885
"182",1.11852723235706,39.6194437481212,0.509803445802778,7.7625613930921,5.83084883408649
"183",1.11852723235706,42.3622538480446,0.509779225104045,7.76067161855598,5.84654704606881
"184",1.11852723235706,41.1733144590788,0.509801747080376,7.76310678788492,5.84741908489627
"185",1.11852723235706,39.4433605699661,0.509800223864671,7.76070038447347,5.85234706613486
"186",1.11852723235706,40.9866511790002,0.509784350585459,7.76057343574136,5.88255857355956
"187",1.11852723235706,39.8803097035764,0.509802541922624,7.76312723369514,5.88306887510398
"188",1.11852723235706,44.2749375318484,0.509771720875921,7.76070146278287,5.8513583786364
"189",1.11852723235706,42.3680908125028,0.509797946501185,7.76138722664795,5.85218248656768
"190",1.11852723235706,42.3031151414998,0.509791443579912,7.7606096769383,5.88049133779683
"191",1.11852723235706,41.331686122225,0.509794735157517,7.76056864913535,5.8991816414234
"192",1.11852723235706,39.392621797661,0.509800219165638,7.76058127898475,5.89952265965438
"193",1.11852723235706,38.1863161900305,0.509797918170384,7.76056715056444,5.91202457258447
"194",1.11852723235706,36.4664808286571,0.509800665742753,7.76056684217915,5.91223381967809
"195",1.11852723235706,35.3885223702889,0.509803859053555,7.76249305803201,5.91244091279831
"196",1.11852723235706,33.863601018384,0.509801523932381,7.76066801408624,5.91269006945328
"197",1.11852723235706,32.4659846611719,0.509801036387697,7.76057172757839,5.91357171356473
"198",1.11852723235706,32.0782592142122,0.509795298495932,7.76056664653087,5.93478287216245
"199",1.11852723235706,32.2365645615752,0.509791214806753,7.76056637840043,5.96355746183926
"200",1.11852723235706,34.0859648990835,0.509817973537662,7.76498769867279,5.96322948819178
"201",1.11852723235706,32.9574590193391,0.509801753697859,7.76079956231595,5.9708012404112
"202",1.11852723235706,33.4512634748185,0.509811944612986,7.76569780867247,5.97039667838527
"203",1.11852723235706,34.3392543961746,0.509815633695168,7.76616896857892,5.96999640068399
"204",1.11852723235706,32.8856903983948,0.509803244308751,7.76086182720362,5.9696541109289
"205",1.11852723235706,34.4658644508109,0.509818168800322,7.76549105304415,5.96926169492014
"206",1.11852723235706,33.0117678488913,0.509803683813322,7.76086913484065,5.96887343237983
"207",1.11852723235706,32.54855273911,0.509806791706581,7.76389285301589,5.96848927859127
"208",1.11852723235706,31.7792286183988,0.50979845102711,7.76074183780931,5.98240374436956
"209",1.11852723235706,30.5710864801254,0.509800249356276,7.76057562318674,5.9841031890978
"210",1.11852723235706,31.9585983132694,0.509784481579751,7.76056685210465,6.01584452152033
"211",1.11852723235706,44.428038887088,0.509868305375461,7.45805903624371,6.01495789948568
"212",1.11852723235706,42.4518407098899,0.509811812023596,7.74464356730224,6.01408086196862
"213",1.11852723235706,40.4838024525361,0.509802426814688,7.7597245664879,6.01446566625466
"214",1.11852723235706,39.2486748369303,0.509798078848784,7.7605219369258,6.02731826074862
"215",1.11852723235706,42.3205372708853,0.509776845475789,7.76056401902971,6.03537392903428
"216",1.11852723235706,43.1139290057504,0.509784438905918,7.76056623974523,6.06938474269891
"217",1.11852723235706,41.0572489058157,0.509798619717383,7.76056635693405,6.06826907457206
"218",1.11852723235706,42.7053809384596,0.509817159367386,7.76555488396217,6.06680902609133
"219",1.11852723235706,40.7429453593371,0.509803095352336,7.76082946082821,6.06719604249876
"220",1.11852723235706,40.7598856249238,0.509810467620815,7.76532998866854,6.06574786194923
"221",1.11852723235706,39.769522518072,0.509806853406391,7.7636498057782,6.06431568994511
"222",1.11852723235706,41.1032537351722,0.50978633086185,7.76072902145192,6.09783085312656
"223",1.11852723235706,39.7613214695567,0.509796078418906,7.76057494688436,6.10905615922406
"224",1.11852723235706,38.2353863973254,0.509801899350887,7.76165185578113,6.10714101061889
"225",1.11852723235706,45.1498311939741,0.509841099938609,7.73234099226901,6.10524740371445
"226",1.11852723235706,43.9340193211976,0.509802458766091,7.7590720424783,6.12269746984666
"227",1.11852723235706,42.6718433810995,0.509805195550501,7.76305099504986,6.12062839602662
"228",1.11852723235706,40.6767870292973,0.509801513448662,7.76069744194079,6.11965161500535
"229",1.11852723235706,38.9208215024729,0.509801868402813,7.76107575814699,6.11761698375309
"230",1.11852723235706,42.4925359544065,0.509775013401289,7.76059324302431,6.10967005139574
"231",1.11852723235706,44.1960452521316,0.509780103739542,7.76056778191259,6.14155032240873
"232",1.11852723235706,42.0878334880294,0.509798252868174,7.76071194453752,6.13926712070791
"233",1.11852723235706,40.3781501744506,0.509799316856522,7.76057404575488,6.14376045952989
"234",1.11852723235706,41.068417770898,0.509812974211976,7.76585718184626,6.14145204994767
"235",1.11852723235706,39.4947196331309,0.509804540413692,7.76204625517056,6.13916996858841
"236",1.11852723235706,37.6879852015673,0.509801660250932,7.76066454885497,6.1369138915053
"237",1.11852723235706,38.307581784308,0.509812857896341,7.76581910036697,6.13468349922319
"238",1.11852723235706,36.6034733727956,0.509802974976197,7.76093760818222,6.13247847666728
"239",1.11852723235706,35.8484478616355,0.509796693440234,7.76058595348546,6.15061122953634
"240",1.11852723235706,36.8445296342977,0.509813969519008,7.76590168152466,6.14822454306837
"241",1.11852723235706,35.3232783690698,0.50980242969627,7.76084773994392,6.14876521276087
"242",1.11852723235706,35.1337496779902,0.509793777154844,7.76058121142743,6.17571442377283
"243",1.11852723235706,33.7347607990282,0.509800674450375,7.7610241948962,6.17303911131937
"244",1.11852723235706,32.3301674488826,0.509801005797043,7.76059052229552,6.17071460979535
"245",1.11852723235706,31.2833703059765,0.509799394676318,7.76056763833857,6.17648337314322
"246",1.11852723235706,30.901732839684,0.509806249209875,7.76391818979022,6.173799175331
"247",1.11852723235706,31.9602320939949,0.509815816023143,7.76606367452235,6.17114598254395
"248",1.11852723235706,30.7377802925238,0.509803740071255,7.76119788185038,6.16852340521657
"249",1.11852723235706,31.154885727129,0.509790997037966,7.76059968673859,6.20162945764375
"250",1.11852723235706,30.2110540136628,0.509797699904411,7.76056812194979,6.20826047464716
"251",1.11852723235706,29.2827374462887,0.509802276547757,7.76174697261902,6.2052068071258
"252",1.11852723235706,29.1592042900214,0.509794486283303,7.76062865663988,6.23037780772109
"253",1.11852723235706,28.1747029836893,0.509801044128054,7.76121874777842,6.22706438261532
"254",1.11852723235706,27.1323311435977,0.509801035735546,7.7606007876868,6.2242465675175
"255",1.11852723235706,26.3840268265404,0.509799327399397,7.76056818004718,6.2299827068683
"256",1.11852723235706,27.7830989842115,0.509783676541421,7.76056645932519,6.26288796631838
"257",1.11852723235706,27.2569901526585,0.50979494051853,7.76056636852145,6.27670995774513
"258",1.11852723235706,29.383216400923,0.509778293145341,7.76056636372967,6.29430617804114
"259",1.11852723235706,31.9549899815162,0.509773760235736,7.7605663634768,6.30014081579159
"260",1.11852723235706,31.231954607927,0.509800612701904,7.76290809495492,6.29599437360224
"261",1.11852723235706,35.1289091806775,0.509770138978132,7.76068990517056,6.2386762963474
"262",1.11852723235706,37.3699676133858,0.509775963063606,7.76057288275717,6.2618500027281
"263",1.11852723235706,37.5569344233547,0.509806934761601,7.76542912593391,6.25816332681848
"264",1.11852723235706,35.9132945848408,0.509802153190169,7.76095047344228,6.25452059199487
"265",1.11852723235706,34.4128876284551,0.509800931889168,7.76058663233588,6.25279358639715
"266",1.11852723235706,32.9625120778949,0.509801163739955,7.76061116306192,6.24921474973605
"267",1.11852723235706,34.7254214397937,0.509818846188909,7.76519408936233,6.24567843196218
"268",1.11852723235706,37.3353484772476,0.509781069706423,7.76081044241062,6.25966054837602
"269",1.11852723235706,36.3515141262841,0.509794533005261,7.76057924332779,6.27360147996316
"270",1.11852723235706,35.3438647001776,0.509803302299347,7.7627018177393,6.26977435595114
"271",1.11852723235706,40.959944013168,0.50976406789785,7.76067902535822,6.11296183095022
"272",1.11852723235706,39.6407640836808,0.509792751277656,7.76057230863703,6.12442489474524
"273",1.11852723235706,37.8677535198828,0.50980015449017,7.76075094688193,6.12233626835683
"274",1.11852723235706,36.2436698658282,0.509801373741133,7.76086179023972,6.12027128122279
"275",1.11852723235706,34.7802902379852,0.509801829061355,7.7610707040909,6.11822964621148
"276",1.11852723235706,34.6368805106182,0.509808653033244,7.76481958679167,6.11621108008102
"277",1.11852723235706,33.9095516851361,0.509806423253734,7.7635333326815,6.11421530341858
"278",1.11852723235706,33.2256526583837,0.509806152198638,7.76349557241669,6.1122420405808
"279",1.11852723235706,31.8766778894877,0.509801673620419,7.76072088805399,6.11125552185261
"280",1.11852723235706,31.6018001347164,0.509807352863288,7.76428303296773,6.10931561388107
"281",1.11852723235706,32.4078963813454,0.509789098452695,7.76076241126999,6.14403038210069
"282",1.11852723235706,32.8904016127009,0.509809994042803,7.76567870492161,6.14171889238594
"283",1.11852723235706,31.9560539665501,0.50980493990879,7.76258480467496,6.13943376882489
"284",1.11852723235706,31.9183821397532,0.509793835305966,7.76067285343386,6.16711370270667
"285",1.11852723235706,38.7703637795962,0.509754029539148,7.76057198294822,5.8034967615343
"286",1.11852723235706,37.3519377462901,0.509795975299891,7.76180506314886,5.80479210260516
"287",1.11852723235706,45.2883807929981,0.509753893571487,7.7606317212693,5.48298841946027
"288",1.11852723235706,50.3181453653036,0.50982348048381,7.75539508044201,5.48709388479766
"289",1.11852723235706,48.9553451154161,0.509799360378915,7.76029330899694,5.50452811332829
"290",1.11852723235706,46.5667102446555,0.50980037732924,7.76055195372613,5.51002007360074
"291",1.11852723235706,51.9679791870945,0.509831243451008,7.75393528562728,5.51391358798051
"292",1.11852723235706,49.4861830019822,0.509804523343897,7.76021617007594,5.52092384535051
"293",1.11852723235706,49.8052756353366,0.509790059249919,7.76054788275739,5.54801737455908
"294",1.11852723235706,48.9309912210778,0.509806144293873,7.7644835688555,5.55160468610803
"295",1.11852723235706,46.899538287045,0.509803775429237,7.76213078497705,5.55516259794117
"296",1.11852723235706,47.8005750245213,0.5098147506073,7.76598485824329,5.55869126818906
"297",1.11852723235706,45.5455723096007,0.509803808266024,7.76135743085585,5.56219085592701
"298",1.11852723235706,48.2029914966946,0.509821683017188,7.76418789461022,5.56566152112506
"299",1.11852723235706,49.9390054935635,0.509787051010391,7.76075739497158,5.59205656867157
"300",1.11852723235706,47.7485250856054,0.50979746680875,7.76057644411512,5.6005314747963
"301",1.11852723235706,46.1985285218465,0.509804151105298,7.76295024348803,5.60368012718887
"302",1.11852723235706,44.615947937535,0.509804618451548,7.76277215129955,5.60680192029789
"303",1.11852723235706,49.6471442010391,0.509771000651546,7.76068273506441,5.57414137506605
"304",1.11852723235706,47.5106041736138,0.509798409428158,7.76177855287374,5.57751267874
"305",1.11852723235706,50.4611255113354,0.50977886768092,7.76063032269582,5.59382401717149
"306",1.11852723235706,49.695639414233,0.509790445982184,7.76056973861376,5.61673364154341
"307",1.11852723235706,47.3342890335968,0.509798735397731,7.76056654157185,5.62259895246679
"308",1.11852723235706,46.0208471661707,0.509796186639572,7.76056637286166,5.63952752981507
"309",1.11852723235706,45.6534125805596,0.50979202950901,7.7605663639587,5.66446858357139
"310",1.11852723235706,43.746741367086,0.509798224480437,7.76056636348889,5.67254564764132
"311",1.11852723235706,42.3496710423554,0.509797356289705,7.7605663634641,5.68614909693965
"312",1.11852723235706,40.5385286783278,0.509801536945756,7.76126762235784,5.68854561468774
"313",1.11852723235706,39.0292383480899,0.509803016202658,7.7619041565949,5.69092044113252
"314",1.11852723235706,37.2889350734073,0.509801606503482,7.76078438448052,5.69327373900132
"315",1.11852723235706,35.6464206643443,0.509801282969232,7.76063711747418,5.69560567051135
"316",1.11852723235706,35.6418621530695,0.509809445247862,7.76509627946822,5.69791639735398
"317",1.11852723235706,37.0026545556067,0.509817694214799,7.76598937917179,5.7002060806796
"318",1.11852723235706,35.4182028001985,0.50980383908605,7.76106389847205,5.70247488108289
"319",1.11852723235706,33.9013469232457,0.509801596711273,7.76064222011232,5.70472295858864
"320",1.11852723235706,35.3045398498825,0.509816880607979,7.76570091108752,5.70695047263799
"321",1.11852723235706,40.0052234004122,0.509835161665497,7.75171383488439,5.70915758207516
"322",1.11852723235706,39.9348651359393,0.509797222533864,7.76009873381022,5.73557347708088
"323",1.11852723235706,38.0917025580751,0.509800564060196,7.76054216612969,5.7375158199128
"324",1.11852723235706,36.4100635540726,0.509800882192743,7.76056508654809,5.74009148112957
"325",1.11852723235706,35.9855343105691,0.509807313461287,7.76430836529448,5.74199159897456
"326",1.11852723235706,34.6267496699811,0.509803173826173,7.76159284648194,5.74387392344778
"327",1.11852723235706,36.5473747145687,0.509782400853792,7.7606205253491,5.76891217596415
"328",1.11852723235706,34.9454076609883,0.50979841787806,7.7605860366858,5.77054019659356
"329",1.11852723235706,35.3298812817143,0.509811006458044,7.76560429759647,5.77215270667577
"330",1.11852723235706,35.0852742950195,0.509795336449504,7.76083206542642,5.79607444822797
"331",1.11852723235706,33.5847603492224,0.509800318485904,7.76060378935024,5.79744174690031
"332",1.11852723235706,32.1881502476792,0.509800965924681,7.76056833844587,5.79899818490228
"333",1.11852723235706,31.6733119687509,0.509796134137833,7.76056646768401,5.8174603500142
"334",1.11852723235706,33.7032861440129,0.509819795634753,7.76452595778129,5.81861949608189
"335",1.11852723235706,37.2017653401027,0.509830436180646,7.75906477247385,5.81976728834132
"336",1.11852723235706,38.1796071337354,0.509818811062152,7.76582247824243,5.82090383077943
"337",1.11852723235706,39.2517627548157,0.509817566702527,7.76616785252446,5.82202922658134
"338",1.11852723235706,42.6084612596914,0.509778386271755,7.7608617683842,5.82380340992526
"339",1.11852723235706,47.074913888262,0.509768798268163,7.76058195166957,5.79880699594759
"340",1.11852723235706,44.9096168832136,0.509797244515251,7.76118571585057,5.80014783858608
"341",1.11852723235706,50.1551576484197,0.509830744318032,7.7540333625915,5.80147568433817
"342",1.11852723235706,48.4887744266123,0.50980911097136,7.76265850519529,5.80279064940437
"343",1.11852723235706,46.0408494131168,0.509802400616114,7.76075112523793,5.80409284915043
"344",1.11852723235706,44.2223482028707,0.50980332430194,7.76199776596663,5.80538239810893
"345",1.11852723235706,42.5508148951633,0.509799232690259,7.76064188722475,5.81509808043899
"346",1.11852723235706,41.1366740593281,0.509797907130728,7.7605703488727,5.82729929002865
"347",1.11852723235706,39.6012365619305,0.509802538787883,7.7619030680103,5.82836183130744
"348",1.11852723235706,38.2409664974315,0.509798982263135,7.76063689153036,5.83847820034098
"349",1.11852723235706,40.9085909478137,0.509822133033755,7.76348076482032,5.83943034284769
"350",1.11852723235706,41.1243771340088,0.509793832874239,7.76072010716972,5.86923961031069
"351",1.11852723235706,40.0133787836298,0.509796039850577,7.7605744764882,5.8849574016978
"352",1.11852723235706,38.1703843528043,0.509800419363448,7.7605886846452,5.88544336359403
"353",1.11852723235706,36.9894979341616,0.509798171548676,7.76056754136493,5.89717924951354
"354",1.11852723235706,35.9914330638862,0.509797208134873,7.76056642562147,5.91111562055221
"355",1.11852723235706,35.2808631976651,0.509805178209583,7.76353894714525,5.91133422170856
"356",1.11852723235706,38.0381443362872,0.509778447703724,7.7607231754217,5.92254541186727
"357",1.11852723235706,36.4881127204789,0.509798640007433,7.7611818443404,5.92264607932723
"358",1.11852723235706,36.6772458517414,0.509810167499091,7.76544054273789,5.92274570511185
"359",1.11852723235706,35.9975825090656,0.509807397890833,7.76396359038485,5.92284429994898
"360",1.11852723235706,34.9481965792563,0.509799131723566,7.76074556779532,5.93470568845381
"361",1.11852723235706,35.717514138794,0.509788049255099,7.76057582001284,5.96751324318527
"362",1.11852723235706,39.7243081670408,0.509827498607189,7.75674699905666,5.9671434775448
"363",1.11852723235706,43.032354736377,0.509828845469289,7.76137678384708,5.96677762170889
"364",1.11852723235706,40.9991945580956,0.50980503060026,7.76060912596712,5.96712725225546
"365",1.11852723235706,42.3177111165391,0.509816643933432,7.76580637944593,5.96676156796586
"366",1.11852723235706,41.6266869335409,0.509809466992856,7.76451794527787,5.9663997496254
"367",1.11852723235706,39.9041939696239,0.509801167364675,7.76077479687037,5.97123489357122
"368",1.11852723235706,39.6482474056303,0.509808798005351,7.76489147235234,5.97082573824007
"369",1.11852723235706,39.0312146503503,0.509796130792721,7.76079448947192,5.99310439620641
"370",1.11852723235706,37.9872513288956,0.509804072436532,7.76302924854091,5.99246238813333
"371",1.11852723235706,37.6182023154137,0.509808356856139,7.76468136361011,5.99182724938089
"372",1.11852723235706,38.9387429983252,0.50981724285146,7.76600751741119,5.99119890445593
"373",1.11852723235706,40.2346416188095,0.509788006094645,7.7608533180861,6.02409446103629
"374",1.11852723235706,41.3198308973312,0.509784759340598,7.76058150577091,6.05792458494984
"375",1.11852723235706,39.6625764084972,0.509797332805779,7.76056716253208,6.06305959510049
"376",1.11852723235706,39.2939511718331,0.509793213311507,7.76056640563019,6.08908908744105
"377",1.11852723235706,39.2831505507041,0.50980871530929,7.76522957870483,6.08739769728735
"378",1.11852723235706,37.4878751350173,0.509802234820648,7.76081231321548,6.08577145822862
"379",1.11852723235706,36.7561725219877,0.509806156058667,7.76367777638397,6.084117067574
"380",1.11852723235706,36.3661268333786,0.509795151527103,7.76073049643317,6.10852355078068
"381",1.11852723235706,37.0689281733381,0.509812263077453,7.7658571146119,6.10661439467986
"382",1.11852723235706,41.022402676439,0.50983028555416,7.75799921284147,6.10472670822196
"383",1.11852723235706,39.1456109089605,0.509805610892609,7.76059033568737,6.10286023346228
"384",1.11852723235706,37.4252830086905,0.5098014402478,7.76056762849118,6.10272181772873
"385",1.11852723235706,39.7253563267013,0.509820924765847,7.76435680530398,6.10087785368304
"386",1.11852723235706,46.5496947788674,0.509763888966886,7.76076630094077,5.90151631723681
"387",1.11852723235706,44.2610955524314,0.509795522892095,7.76057691406859,5.90254710375048
"388",1.11852723235706,45.8363649850821,0.509783740860873,7.76056692022528,5.93338905030605
"389",1.11852723235706,43.6392770324819,0.509798917813163,7.7608110547758,5.93337721356843
"390",1.11852723235706,43.4425890660273,0.509792016998689,7.76057927564094,5.96164588394152
"391",1.11852723235706,41.949234416223,0.50979697659296,7.76056704484686,5.97305199113362
"392",1.11852723235706,40.1213547892748,0.509801276489499,7.76112071290433,5.97262357871967
"393",1.11852723235706,38.3136533188574,0.509800907288418,7.76059561503046,5.97332387121422
"394",1.11852723235706,40.7384509774179,0.50982128522904,7.76413365014732,5.97289257608068
"395",1.11852723235706,39.2624429747929,0.509806123312981,7.76220068975663,5.97246585375907
"396",1.11852723235706,39.2048435749062,0.509810375364381,7.76524797519622,5.97204365485611
"397",1.11852723235706,37.611562336356,0.509803479110933,7.76154164728521,5.97162593053082
"398",1.11852723235706,40.1997752618316,0.509822543455029,7.76368147621205,5.97121263248797
"399",1.11852723235706,39.7522879887658,0.509811067047175,7.76471939537326,5.97080371297162
"400",1.11852723235706,50.1206595090303,0.509854931079849,7.67593679713928,5.97039912475869
"401",1.11852723235706,54.9371578302275,0.50978070894634,7.75605638169931,5.94831739645244
"402",1.11852723235706,67.5876466018814,0.509847476830394,7.69316087999406,5.94814969817067
"403",1.11852723235706,66.5210160997974,0.509799110280029,7.75698148871049,5.97655377679105
"404",1.11852723235706,69.9913038609038,0.509821754917144,7.76353030279204,5.97608820717694
"405",1.11852723235706,78.8931172323346,0.509768696648508,7.76072271956327,5.87139618987718
"406",1.11852723235706,74.3687157216307,0.509795222735611,7.76057461434123,5.87682017407771
"407",1.11852723235706,71.9717120229096,0.509794270883515,7.76056679886723,5.89836671955831
"408",1.11852723235706,69.1616868937082,0.509804414810199,7.76336071570967,5.8987160702264
"409",1.11852723235706,65.2783048240007,0.509802332121091,7.76124479869389,5.89906184926591
"410",1.11852723235706,75.2965931753205,0.509839385205672,7.73742572164535,5.89940409256754
"411",1.11852723235706,70.6549924957232,0.509806767687329,7.75937052371028,5.89974283567424
"412",1.11852723235706,67.4223237345022,0.509804836929112,7.76248275275345,5.90007811378436
"413",1.11852723235706,67.4537012212122,0.509789691496057,7.76066747050876,5.93207763338406
"414",1.11852723235706,63.9652766132068,0.509797929401805,7.76057169889407,5.93856878883256
"415",1.11852723235706,62.1317052914044,0.509806387607831,7.76408580315368,5.93850300023801
"416",1.11852723235706,60.1984469491783,0.509796595620739,7.76075201193996,5.95830711104394
"417",1.11852723235706,58.6356362249112,0.509794289174936,7.76057616006086,5.98069360762501
"418",1.11852723235706,55.5985795725536,0.50979933268422,7.76056688043583,5.98376470161715
"419",1.11852723235706,52.6413348292922,0.509800628673031,7.76056639074377,5.98432904029182
"420",1.11852723235706,50.9927628733669,0.509805313800051,7.76334394105244,5.9837807506282
"421",1.11852723235706,54.3432351319596,0.509823757490182,7.76316206244904,5.98323830394791
"422",1.11852723235706,53.0499746439031,0.509810303433399,7.76428642073286,5.98270163652256
"423",1.11852723235706,57.8800274612498,0.509774796173045,7.76076258989247,5.96542222489502
"424",1.11852723235706,56.2029461150088,0.509802454356864,7.76383178317257,5.96507456015364
"425",1.11852723235706,61.5678196684386,0.50982898393701,7.75772544367055,5.96473056791925
"426",1.11852723235706,58.4646207593042,0.509803871619321,7.76041639714589,5.97020797560531
"427",1.11852723235706,55.4679078701444,0.509800638223132,7.76055844949362,5.97378074644855
"428",1.11852723235706,53.1689391108654,0.509798425833865,7.76056594583636,5.98443085560332
"429",1.11852723235706,54.9792554791872,0.509783521023499,7.76056634142426,6.01516822581986
"430",1.11852723235706,52.0909468002143,0.509798868332931,7.76079815339148,6.01428891498842
"431",1.11852723235706,53.4779272112919,0.509815908167106,7.76579583097822,6.01341910677039
"432",1.11852723235706,51.0538147761333,0.509804891155429,7.76198983599145,6.01255869478059
"433",1.11852723235706,56.7077245259225,0.509831470193872,7.75467785829763,6.01170757390091
"434",1.11852723235706,69.920431274788,0.50985546648698,7.68995526887482,6.01086564026372
"435",1.11852723235706,72.0789738083765,0.509826401965424,7.76155127315274,6.01003279123545
"436",1.11852723235706,73.8495040310682,0.509787858463628,7.76061833200005,6.04140028607927
"437",1.11852723235706,71.9747167331858,0.509791854053585,7.76056910586433,6.06724472814187
"438",1.11852723235706,77.8804677962631,0.509826336815237,7.75887101348967,6.06579600923761
"439",1.11852723235706,73.2676605739519,0.509805507089399,7.76098527567635,6.06436330516025
"440",1.11852723235706,74.463435510955,0.509816658274399,7.76583266693174,6.06294642914747
"441",1.11852723235706,75.2626256618078,0.509817333525124,7.76616485393425,6.06154519681499
"442",1.11852723235706,84.9059003438515,0.50976751660864,7.76086161034942,5.94327927768005
"443",1.11852723235706,85.5382503284828,0.509781700905421,7.76058194333052,5.97620497281966
"444",1.11852723235706,81.8893414170498,0.50979369406816,7.76056718562234,5.99385433175451
"445",1.11852723235706,84.0537600136569,0.509817334301086,7.76532224287693,5.99320429700068
"446",1.11852723235706,89.0566396191802,0.509779200281791,7.76081719789426,5.99882617317855
"447",1.11852723235706,83.4552659177633,0.509797293102689,7.7605795997994,6.00100344702351
"448",1.11852723235706,78.4424743168876,0.509799681760815,7.76056706195288,6.00430177899625
"449",1.11852723235706,73.6740322460811,0.509801332525816,7.76087272367754,6.00353963684945
"450",1.11852723235706,76.8721889361972,0.509780523538025,7.76058252974855,6.02580095960462
"451",1.11852723235706,75.9512194168306,0.509807939991803,7.76550926951618,6.02480644571458
"452",1.11852723235706,81.1931982772826,0.509776601834258,7.76082705645947,6.02270540202466
"453",1.11852723235706,77.8241608918659,0.509792977017673,7.76058012001261,6.04029696103623
"454",1.11852723235706,73.163872020102,0.509800494225261,7.76097799808924,6.03914450914154
"455",1.11852723235706,74.158430788645,0.509786095108168,7.76058808469917,6.07291196007028
"456",1.11852723235706,69.6794240037264,0.509798715325475,7.7605675097055,6.07246157162676
"457",1.11852723235706,71.7768497272986,0.509817946575605,7.76535758793202,6.07095510144951
"458",1.11852723235706,67.4464074385329,0.509803659675515,7.76086841491287,6.06946532126986
"459",1.11852723235706,74.9341127668887,0.509769060106875,7.76058230238774,6.00133576436823
"460",1.11852723235706,72.9422446337496,0.509789270064904,7.76056720456998,6.0265445840351
"461",1.11852723235706,80.1189919485522,0.509828836878483,7.75512268746664,6.02554199272695
"462",1.11852723235706,80.8763160292739,0.509819235483951,7.76559332953798,6.0245502911684
"463",1.11852723235706,96.3845640986318,0.509756718593161,7.76083148730137,5.64937221550997
"464",1.11852723235706,95.2347786279105,0.50978326563557,7.7605803538173,5.67798207804687
"465",1.11852723235706,89.7106497869676,0.509796529513953,7.76056710174284,5.68736219920897
"466",1.11852723235706,83.9162347092354,0.509800768623945,7.76079651274466,5.68974774121611
"467",1.11852723235706,78.6768527209497,0.509800654793796,7.76057850828906,5.69367793866559
"468",1.11852723235706,78.7735678436684,0.509813490309315,7.76587906211673,5.6960061970185
"469",1.11852723235706,75.1863938602654,0.509799351315227,7.76084654775728,5.71031181936803
"470",1.11852723235706,76.4145146428828,0.50978526185296,7.76058114851892,5.73989286838305
"471",1.11852723235706,71.7124319194307,0.509798946193765,7.76066683437746,5.74179484491287
"472",1.11852723235706,68.3307777630731,0.509803489768072,7.76242488483738,5.74367901282055
"473",1.11852723235706,65.6754018930121,0.509805544178972,7.76333869322842,5.74554551841958
"474",1.11852723235706,67.67303382819,0.509818712386753,7.76556811597831,5.74739450725055
"475",1.11852723235706,63.9638745631577,0.509802795150555,7.76083015829215,5.75267231111741
"476",1.11852723235706,62.1744042179333,0.50980723213271,7.76416076457154,5.75445423355016
"477",1.11852723235706,59.3514047619503,0.509804346330837,7.76238344118166,5.75621934207038
"478",1.11852723235706,62.0045289655381,0.509820624727723,7.76478871591572,5.75796777754424
"479",1.11852723235706,58.9111234424107,0.509805407684084,7.76181804562933,5.75969968003082
"480",1.11852723235706,65.0276894646774,0.509771272969411,7.76063240616867,5.72362261326883
"481",1.11852723235706,64.7389315607404,0.509785927199004,7.76056984855851,5.75266619485323
"482",1.11852723235706,71.0971631093104,0.509768939048889,7.76056654737371,5.72134014203792
"483",1.11852723235706,67.5426434337172,0.509798498819501,7.76203301252132,5.72341473960438
"484",1.11852723235706,63.5498066521756,0.509800759928812,7.76065120221749,5.72547013317112
"485",1.11852723235706,60.0420139411782,0.509801571765142,7.76093722261049,5.72750647589938
"486",1.11852723235706,60.2745295402576,0.509789141683773,7.76058593314029,5.75753185327004
"487",1.11852723235706,58.7106989371934,0.509805335838443,7.76419354747156,5.75926787942464
"488",1.11852723235706,58.4581003612266,0.509811699580614,7.7657287653209,5.76098747707475
"489",1.11852723235706,59.7826930913408,0.50978714009425,7.76083862600345,5.79123767366683
"490",1.11852723235706,60.0176128626258,0.509810672766513,7.76582145768677,5.79265169977798
"491",1.11852723235706,60.0400231694327,0.509813467248753,7.7659979625131,5.79405207858409
"492",1.11852723235706,67.4502841900499,0.509835648954887,7.74993425958587,5.79543893087243
"493",1.11852723235706,64.3110429103621,0.509803588868467,7.76000461383896,5.80647502597629
"494",1.11852723235706,65.6804899240926,0.50978572810509,7.76053671761084,5.8370885266608
"495",1.11852723235706,64.2455967020366,0.509806045908146,7.76469638216208,5.83805442982064
"496",1.11852723235706,63.4937070432442,0.509792503039762,7.76078420439463,5.86642961017288
"497",1.11852723235706,59.8399191815678,0.509799852764773,7.76057785880175,5.86718911946731
"498",1.11852723235706,56.4789483137423,0.509800944446925,7.76056697007942,5.86787016373025
"499",1.11852723235706,53.4038549644951,0.509801169401919,7.76061301394063,5.86852884092988
"500",1.11852723235706,50.8418272906424,0.509800030662961,7.7605688252296,5.87373942777616
"501",1.11852723235706,52.2293376928566,0.509816080559336,7.76578340666773,5.87433895274026
"502",1.11852723235706,51.0903416854311,0.509797032405933,7.76084150603851,5.89663137738945
"503",1.11852723235706,48.5139516768322,0.509800155141892,7.76058088248066,5.89862541874886
"504",1.11852723235706,50.820788980968,0.509781709138877,7.7605671296407,5.92432116940761
"505",1.11852723235706,48.1711820761235,0.509798292434257,7.76056640389449,5.92441259136151
"506",1.11852723235706,45.874237438831,0.509800076029415,7.76056636559633,5.92727829860925
"507",1.11852723235706,43.6203750530686,0.509800883132849,7.76056636357531,5.92775953280888
"508",1.11852723235706,41.6129520387155,0.509801558672727,7.76090987122959,5.92780617798434
"509",1.11852723235706,45.4654764984535,0.509774482051903,7.76058448990607,5.91861164575019
"510",1.11852723235706,46.6370023472551,0.509811518096383,7.76586735305301,5.91875297792321
"511",1.11852723235706,44.9275104305296,0.509799928156042,7.76084593061274,5.9299148942506
"512",1.11852723235706,43.3340489337806,0.50980362849523,7.76243127646928,5.92993916766351
"513",1.11852723235706,41.5057718494009,0.509800273614407,7.76066475524523,5.93519766714889
"514",1.11852723235706,41.3341794633682,0.509792397792853,7.76057155561089,5.96313617904814
"515",1.11852723235706,39.5112733272603,0.509800430739918,7.76099306514989,5.96281265155925
"516",1.11852723235706,40.4466907055525,0.509814240855912,7.76592475010159,5.96249253793108
"517",1.11852723235706,42.2251327845884,0.509785364442042,7.76084895579826,5.99221661941721
"518",1.11852723235706,41.143695397574,0.509803102473947,7.76337028628297,5.99158410979049
"519",1.11852723235706,42.3364690284369,0.509786469562198,7.76071428095796,6.02484330370699
"520",1.11852723235706,43.1704116665301,0.509811807495222,7.76590332668556,6.02385918816635
"521",1.11852723235706,41.4804496020229,0.509804453020536,7.76210485549246,6.02288575366859
"522",1.11852723235706,40.4454477229681,0.509797135443786,7.76064753649305,6.04018729517962
"523",1.11852723235706,38.9843325748654,0.509798443828011,7.76057064698339,6.04842691553664
"524",1.11852723235706,37.3058869942624,0.509801233488889,7.76093331201373,6.04718544523892
"525",1.11852723235706,35.8387226807084,0.509800104818141,7.76058572679269,6.05078967290401
"526",1.11852723235706,38.3915989314318,0.509778882707585,7.76056738527762,6.06743486667687
"527",1.11852723235706,37.232996962129,0.509794839599489,7.76056641738463,6.07936002461141
"528",1.11852723235706,36.2986895186334,0.509796308856277,7.76056636630821,6.09457824295831
"529",1.11852723235706,34.7329806932727,0.509800298977755,7.76056636361287,6.09346437975849
"530",1.11852723235706,33.9387507083539,0.50979701643977,7.76056636347064,6.10900567774465
"531",1.11852723235706,32.9348214589257,0.509802969131789,7.7622687724535,6.1070910971746
"532",1.11852723235706,33.216007894053,0.50979150366627,7.7606561832968,6.13873488639844
"533",1.11852723235706,31.888250388689,0.509799405169711,7.76057110327263,6.13808786803713
"534",1.11852723235706,31.3981001003218,0.509795829932592,7.76056661358584,6.15742513106928
"535",1.11852723235706,34.4020944841684,0.509774528919957,7.7605663766619,6.15198918885363
"536",1.11852723235706,38.5102872764768,0.509826555266009,7.75530750152929,6.14958673231422
"537",1.11852723235706,37.7367750218878,0.509799775121543,7.76028868185521,6.16902303181062
"538",1.11852723235706,36.0576821585125,0.509800985971414,7.76058895433738,6.16642492889295
"539",1.11852723235706,34.8720331561713,0.509798936901784,7.76056755559671,6.17428431553971
"540",1.11852723235706,34.027805038025,0.509797065227554,7.7605664263725,6.18875171977414
"541",1.11852723235706,35.1776273001692,0.509814861596967,7.76586340966861,6.18592540512264
"542",1.11852723235706,34.2389550024722,0.509799845285937,7.76084572277011,6.19853003218602
"543",1.11852723235706,37.2465103804498,0.509824862904844,7.76154138856461,6.1955899705215
"544",1.11852723235706,40.2127158040821,0.509780780656871,7.76061781050032,6.20315324527822
"545",1.11852723235706,42.9886393070541,0.50981959065724,7.76340425277855,6.20015925777584
"546",1.11852723235706,41.3277265028203,0.509805670260094,7.76202602688204,6.19720020325395
"547",1.11852723235706,39.6144897799137,0.50980289006381,7.76144186773855,6.19427563558432
"548",1.11852723235706,37.8586149872879,0.509801058605783,7.76061255982781,6.19310079744962
"549",1.11852723235706,37.1189355509628,0.509796024279279,7.76056880126598,6.21265086091445
"550",1.11852723235706,35.624104942212,0.509799560345248,7.76056649210735,6.21378412258397
"551",1.11852723235706,35.3415343833911,0.509807719661097,7.76456056044379,6.21066578111873
"552",1.11852723235706,38.6912597842723,0.50977582299084,7.76077704365611,6.20130191990111
"553",1.11852723235706,39.8022925309397,0.509811461581187,7.76589319772733,6.19832953775284
"554",1.11852723235706,38.4418376726558,0.50980022727188,7.76084729279458,6.20709472560928
"555",1.11852723235706,37.4346983482392,0.50979715530014,7.76058118783256,6.22189215431493
"556",1.11852723235706,35.9356543641182,0.509799636373301,7.76056714575429,6.22338597658456
"557",1.11852723235706,38.5132974297934,0.50982226925914,7.76345144521336,6.22015489606437
"558",1.11852723235706,37.4449250511469,0.509807637964752,7.76301977953183,6.21696179748179
"559",1.11852723235706,41.8346874176277,0.50983144466785,7.75536692799539,6.21380618995171
"560",1.11852723235706,40.9491637198212,0.509800283395324,7.76029182160155,6.2340282966089
"561",1.11852723235706,39.1018849546707,0.509800669268778,7.76055187523025,6.2324673119046
"562",1.11852723235706,37.982419834619,0.509804381672809,7.76280924745025,6.2291292372884
"563",1.11852723235706,38.2861806674774,0.50981172862361,7.76569139978517,6.22583053237586
"564",1.11852723235706,36.9421308026403,0.509804640339039,7.76222646659595,6.22257068567518
"565",1.11852723235706,38.0128042108105,0.509787245311028,7.76065395164643,6.25840162135069
"566",1.11852723235706,39.2467564815689,0.509783897185548,7.7605709855092,6.29411483353387
"567",1.11852723235706,37.4574082908508,0.509798587545089,7.76056660737138,6.29018875181697
"568",1.11852723235706,40.8835341603911,0.509825744297031,7.76054148155232,6.28616239640342
"569",1.11852723235706,40.3139746235626,0.509811085766275,7.76436626751734,6.2821845078185
"570",1.11852723235706,40.6026472583077,0.50981284526844,7.76580105446083,6.2782544360985
"571",1.11852723235706,44.9942410964551,0.509831072785722,7.75709274750947,6.27437154135875
"572",1.11852723235706,43.6793592965026,0.509809401651515,7.76295851852824,6.27053519361043
"573",1.11852723235706,45.5174543513354,0.509784618105168,7.76069256461537,6.30268399185197
"574",1.11852723235706,45.6587873829622,0.50980881283729,7.76557438527197,6.29850679635788
"575",1.11852723235706,43.7070216764875,0.509803585286509,7.76179385161755,6.29438009935497
"576",1.11852723235706,44.1476194755442,0.509789852195919,7.76063112979589,6.32991797282124
"577",1.11852723235706,42.3773728552345,0.509801165732583,7.76177531062044,6.32540977772332
"578",1.11852723235706,40.4358282036093,0.509801498504165,7.76089871270556,6.32095658533166
"579",1.11852723235706,39.3617348566395,0.509805066297653,7.76315374104898,6.31655764285864
"580",1.11852723235706,37.7434429753119,0.509800754882893,7.76070286076979,6.31736224181893
"581",1.11852723235706,36.540440681266,0.509798466578752,7.76057356641329,6.32639180782864
"582",1.11852723235706,37.6286442588438,0.509786246919038,7.7605667435674,6.36311582998191
"583",1.11852723235706,38.7566987216245,0.509784272927881,7.76056638352112,6.40006347630307
"584",1.11852723235706,37.1139145621279,0.50979805222132,7.76056636452121,6.39819092139425
"585",1.11852723235706,35.8402382974638,0.509798650623313,7.76056636351857,6.40388681834898
"586",1.11852723235706,35.6174209656403,0.509793317552884,7.76056636346566,6.43167016936552
"587",1.11852723235706,36.8509022059745,0.509814690056709,7.76583052387106,6.42589880884649
"588",1.11852723235706,37.1780757502946,0.509813251701032,7.76585395740193,6.42020018904923
"589",1.11852723235706,39.4925220381742,0.509822759830919,7.76458218690767,6.41457326600939
"590",1.11852723235706,37.9866616436269,0.509805816528036,7.7618734947299,6.40901701334516
"591",1.11852723235706,36.9063799163128,0.509805029456476,7.76281637761195,6.40353042191003
"592",1.11852723235706,36.1532107296021,0.509796908110781,7.76068506772707,6.42188715832047
"593",1.11852723235706,35.9990429843727,0.509792635251624,7.76057262748882,6.45098397807106
"594",1.11852723235706,38.1891109233179,0.509819336991693,7.76450159016769,6.44496825364654
"595",1.11852723235706,42.5336615130138,0.50983266798934,7.75614239533074,6.43902879624874
"596",1.11852723235706,43.0628767551141,0.509817245719907,7.76556367904518,6.43316450214386
"597",1.11852723235706,41.1021940575262,0.509803984993664,7.76119786741556,6.42737428636809
"598",1.11852723235706,41.3757477612128,0.509811807688963,7.76563405213796,6.42165708235345
"599",1.11852723235706,40.4797392264313,0.509807630438401,7.76397007496197,6.41601184156228
"600",1.11852723235706,46.2980462387138,0.509766579564442,7.76074590972446,6.28497929607545
"601",1.11852723235706,44.7921117017862,0.509792558501213,7.76057583805595,6.2982338941355
"602",1.11852723235706,42.6503319812864,0.509799635592408,7.76056686344343,6.29544928376843
"603",1.11852723235706,41.3771956569138,0.509804420386426,7.76292183336621,6.29135950338197
"604",1.11852723235706,40.0502874244528,0.509798573288853,7.76069062976618,6.30248110989112
"605",1.11852723235706,43.6287328563519,0.509774818857013,7.76057292099353,6.29470699698877
"606",1.11852723235706,48.8858165926779,0.509827943673085,7.75324170177118,6.29062617315937
"607",1.11852723235706,48.3781321256008,0.509812957658716,7.76457833264061,6.28659454825749
"608",1.11852723235706,61.2720254200856,0.509857016705365,7.66360551631374,6.28261146093416
"609",1.11852723235706,58.9600055312389,0.509813057610967,7.75788706719357,6.27867626012692
"610",1.11852723235706,57.0369516921337,0.509798140874195,7.76042493154379,6.29689660670706
"611",1.11852723235706,59.107177478692,0.509782697384799,7.76055889987513,6.328607250385
"612",1.11852723235706,55.9293164365413,0.509798002205538,7.76056596960337,6.32651964532985
"613",1.11852723235706,54.598464756026,0.509806678498646,7.76421361711775,6.32205291959854
"614",1.11852723235706,54.2878980769692,0.509811278451241,7.76558416783024,6.3176406288502
"615",1.11852723235706,54.5491178032549,0.509790892377115,7.76083100438774,6.35345426484393
"616",1.11852723235706,53.2121372678499,0.509805378798327,7.76410892161561,6.34865756861066
"617",1.11852723235706,52.4070788727478,0.509794044222754,7.76075323093068,6.37697967956876
"618",1.11852723235706,52.5940386948798,0.509788793839302,7.76057622438515,6.41279331311137
"619",1.11852723235706,52.3020289123973,0.509808505322929,7.76535128029451,6.4072593896818
"620",1.11852723235706,50.4802262345545,0.509798533871987,7.76081872854496,6.4208077179923
"621",1.11852723235706,53.3180430071687,0.509821038182748,7.76409191706405,6.41517315740081
"622",1.11852723235706,64.8390001883139,0.509851046924593,7.70529974598402,6.40960937639769
"623",1.11852723235706,61.8749774232638,0.50980587277693,7.7576312295976,6.41787514254901
"624",1.11852723235706,63.0415636807368,0.509816350214434,7.76569212147278,6.41227743553043
"625",1.11852723235706,60.1790247187294,0.509805747257686,7.76250751411203,6.40674998138667
"626",1.11852723235706,59.0264900944607,0.50979426945376,7.76066877660587,6.43479943478146
"627",1.11852723235706,56.0646716693952,0.509801254925664,7.76139298529291,6.42898857976526
"628",1.11852723235706,64.1233396250312,0.50976398563129,7.7606099807688,6.2656795245857
"629",1.11852723235706,61.4046881158905,0.50979876324392,7.7626601682722,6.26194714409042
"630",1.11852723235706,70.5715700057759,0.5097622129761,7.76067682855105,6.08188817045767
"631",1.11852723235706,70.4349927536555,0.509806741602871,7.76577807119792,6.08027702259066
"632",1.11852723235706,67.3397822806068,0.509805173201312,7.76302738049599,6.07868379518105
"633",1.11852723235706,63.7347251818166,0.50980057712233,7.76069619649002,6.08250622312642
"634",1.11852723235706,62.8934626205284,0.509809721802399,7.76521580747268,6.08088819757255
"635",1.11852723235706,63.0193406371127,0.509790460995815,7.76081158727292,6.11474636413423
"636",1.11852723235706,59.9297610446452,0.509801246387676,7.76177916231045,6.11276711232497
"637",1.11852723235706,59.540858105386,0.50979112877827,7.76063035484729,6.14465611696214
"638",1.11852723235706,56.2339131800508,0.509799564809894,7.76056974031039,6.14287772393472
"639",1.11852723235706,55.6145912392871,0.50979209830179,7.76056654166138,6.17275202471395
"640",1.11852723235706,53.8735250548298,0.509795109363373,7.76056637286639,6.19086819064036
"641",1.11852723235706,52.4306778588632,0.509794802553633,7.76056636395895,6.21164411462123
"642",1.11852723235706,50.2028768705313,0.50979807216309,7.7605663634889,6.21906179197731
"643",1.11852723235706,50.3497442223767,0.509811227150328,7.7656543310355,6.21588153280425
"644",1.11852723235706,49.8338435956937,0.509810684049834,7.76529111373989,6.21273859895463
"645",1.11852723235706,47.265118391699,0.509802508631122,7.76081555697134,6.20975622622688
"646",1.11852723235706,46.9279560175232,0.509792650674889,7.76057951321165,6.23980595935577
"647",1.11852723235706,51.19274243832,0.509772870676768,7.7605670573836,6.22394872237327
"648",1.11852723235706,49.9805003024461,0.509802591385324,7.76402392415101,6.22071102205889
"649",1.11852723235706,49.1210285080731,0.50980806259683,7.76470221672601,6.21751138933215
"650",1.11852723235706,50.1442656825939,0.509787844979305,7.7607845119972,6.25332661648198
"651",1.11852723235706,56.1156984398395,0.50983029409565,7.75251858035308,6.24974144241493
"652",1.11852723235706,70.4498411168487,0.509750037201203,7.76014128334687,5.46718089779477
"653",1.11852723235706,66.7248165108601,0.509795119748323,7.76159741222719,5.47140799543374
"654",1.11852723235706,66.4062050452875,0.509789348604412,7.76062076622997,5.49738856721829
"655",1.11852723235706,62.8892311883037,0.50980056207235,7.76140932162805,5.50138173968554
"656",1.11852723235706,60.2470386372938,0.50979788970721,7.76061084268414,5.51440822362855
"657",1.11852723235706,56.9630802885583,0.509800280228144,7.76056871065199,5.519468924172
"658",1.11852723235706,54.1463151511948,0.50980210348215,7.76136618775088,5.52328718969259
"659",1.11852723235706,51.7371325255245,0.50979938456174,7.76060856690661,5.53283864435105
"660",1.11852723235706,49.2395736073447,0.509801732445032,7.76119757747783,5.53654941994374
"661",1.11852723235706,47.3953451459027,0.509798381996877,7.76059967067895,5.54873042653731
"662",1.11852723235706,45.009638361663,0.50980071651103,7.76056812110232,5.55236616531249
"663",1.11852723235706,44.4867432430374,0.509808337021713,7.76473580728038,5.55591782566859
"664",1.11852723235706,42.8330700213673,0.509804477921669,7.76239440654303,5.55944027829777
"665",1.11852723235706,40.7815383532936,0.509801623337963,7.76066281041604,5.56293776047594
"666",1.11852723235706,41.3643035022961,0.509812841905818,7.76581785594208,5.5664022425778
"667",1.11852723235706,41.6241339670559,0.509792222321228,7.76084332177167,5.593359516973
"668",1.11852723235706,39.6748567070535,0.509799758592993,7.76058097829217,5.59682035491955
"669",1.11852723235706,38.0064978213841,0.509801708600781,7.76113965216801,5.60000058452907
"670",1.11852723235706,36.8733137729643,0.509804165034477,7.76261791392107,5.60315375948611
"671",1.11852723235706,38.5768701565905,0.509818533048092,7.76552409334582,5.60628004706433
"672",1.11852723235706,40.3438952164198,0.50978589061099,7.76082783783646,5.63221940301883
"673",1.11852723235706,39.1027928406995,0.509795729221164,7.76058016124398,5.64531269909211
"674",1.11852723235706,37.8848895823185,0.509803172413853,7.76251564832876,5.64807354505045
"675",1.11852723235706,42.6411457895239,0.509769394707955,7.76066920566298,5.60145999252072
"676",1.11852723235706,40.6878548671044,0.509796087520273,7.76057179045729,5.60598476575822
"677",1.11852723235706,39.0252468375638,0.509801527989273,7.76139290912621,5.60908685988295
"678",1.11852723235706,37.2525743595634,0.509801224442451,7.76063369273021,5.61216238615673
"679",1.11852723235706,35.7442439682213,0.509800346884053,7.76056991645028,5.61793945008998
"680",1.11852723235706,37.0438971084174,0.509785391218314,7.76056655095641,5.64634605783052
"681",1.11852723235706,38.6091520190508,0.509781915270624,7.76056637335689,5.67390771499212
"682",1.11852723235706,37.9417229760132,0.509803755635618,7.76394837602905,5.67641449822137
"683",1.11852723235706,36.5104277306039,0.509802920019798,7.76175958282264,5.67889877418647
"684",1.11852723235706,38.2463594087966,0.509818543793608,7.76542553910022,5.68136070790052
"685",1.11852723235706,36.5368642551564,0.509803757072161,7.76087958117798,5.68380046395202
"686",1.11852723235706,34.9923723964464,0.509801179233881,7.76058289159818,5.68746134016565
"687",1.11852723235706,34.0317438166994,0.509804138987777,7.76261993517016,5.68984598479256
"688",1.11852723235706,33.2206850367078,0.509805132635612,7.76306141477982,5.69220902709863
"689",1.11852723235706,34.411797819761,0.509816297853489,7.76597377925432,5.69455062953439
"690",1.11852723235706,36.8497762350597,0.509781527740358,7.76085153991153,5.71144917009426
"691",1.11852723235706,36.3126884704,0.509803987435355,7.76409986040094,5.71361498167181
"692",1.11852723235706,37.4578418061198,0.50978675372693,7.76075275315154,5.7436978746752
"693",1.11852723235706,36.3024480082366,0.509796250510341,7.76057619917347,5.75547136960099
"694",1.11852723235706,42.0615950099575,0.509836458577868,7.74257007147474,5.75722687251138
"695",1.11852723235706,40.1001625882952,0.509806134502446,7.75961471886442,5.75961725178156
"696",1.11852723235706,39.895210202611,0.509809794383819,7.76492392980228,5.76133354115854
"697",1.11852723235706,38.0861503052569,0.5098025569842,7.76091300753931,5.76303356863007
"698",1.11852723235706,37.3309906968289,0.509796270536341,7.76058465539834,5.78165283427289
"699",1.11852723235706,37.5133940538268,0.509809877469016,7.76542309503379,5.78315907424772
"700",1.11852723235706,35.8771359058282,0.509802214325291,7.7608225140748,5.78544355764686
"701",1.11852723235706,35.3246175904873,0.509806724307889,7.76396192229907,5.78691338896671
"702",1.11852723235706,36.0058411567326,0.509789626658703,7.76074547983775,5.81780311903491
"703",1.11852723235706,40.1641072185757,0.509769425532428,7.76057581537144,5.78417529428591
"704",1.11852723235706,39.5786966694562,0.509790111284605,7.76056686224635,5.80624151370029
"705",1.11852723235706,38.0015710367225,0.509800716853412,7.76143680569972,5.80751016811139
"706",1.11852723235706,38.2611361814324,0.509810977758345,7.76557320752588,5.80876647365506
"707",1.11852723235706,37.3118180288404,0.5098065188807,7.76343760671378,5.81001054181934
"708",1.11852723235706,38.3017576854322,0.509815373276899,7.76605263474583,5.81124248326754
"709",1.11852723235706,36.7158885683578,0.509802460840037,7.76085569598044,5.81547884515655
"710",1.11852723235706,36.9782160865294,0.509791144829713,7.76058163124585,5.84480425700127
"711",1.11852723235706,37.0602485255121,0.509790410772631,7.76056716915346,5.87310589590589
"712",1.11852723235706,38.5942939319699,0.509782808251478,7.7605664059796,5.90340149876483
"713",1.11852723235706,36.8948470840518,0.509798195297639,7.76056636570636,5.90481990739861
"714",1.11852723235706,37.2187866468195,0.509810827166167,7.76557369918474,5.90510318093785
"715",1.11852723235706,37.0852303550961,0.509794390188125,7.76083045258418,5.93191903159336
"716",1.11852723235706,43.5785276212956,0.509759811501316,7.76058029921782,5.74474996502636
"717",1.11852723235706,43.5606420255844,0.509804312829106,7.76536353918261,5.74660642239678
"718",1.11852723235706,48.3978586435541,0.509830658216586,7.75592461732723,5.74844544598848
"719",1.11852723235706,46.8716531871154,0.509809251260858,7.76284598535059,5.75026718011497
"720",1.11852723235706,44.529269637187,0.509802288498975,7.76068662933775,5.75220462241096
"721",1.11852723235706,42.4529357308339,0.509800845402063,7.7605727098939,5.75575571091051
"722",1.11852723235706,42.6571808185751,0.509811162963015,7.76556328967681,5.75750852751311
"723",1.11852723235706,44.4164836491882,0.509785153574287,7.76082990389645,5.78560624520635
"724",1.11852723235706,42.3405660811087,0.509798374598704,7.76058027026492,5.78874673454664
"725",1.11852723235706,42.2384717584384,0.509791681141451,7.76056709733373,5.81618164857951
"726",1.11852723235706,41.1975271981531,0.50980421393809,7.76345644342477,5.81735331098725
"727",1.11852723235706,39.5101411381456,0.509800366218644,7.76071882456583,5.82332854365755
"728",1.11852723235706,38.0470239146006,0.509799219175083,7.76057440880663,5.8314579671605
"729",1.11852723235706,39.5154111393964,0.509816594047688,7.7656866688696,5.83247951784914
"730",1.11852723235706,39.3534349355438,0.509811442739508,7.76528414999691,5.8334909851482
"731",1.11852723235706,38.4516670445671,0.509798018788288,7.76081518988712,5.85101486091155
"732",1.11852723235706,37.6407996835421,0.509795809259069,7.76057949384145,5.86930428908963
"733",1.11852723235706,35.973698856319,0.509800433744519,7.76062528915843,5.869948529543
"734",1.11852723235706,34.5817378281184,0.509801983644874,7.76126831844585,5.87058628115364
"735",1.11852723235706,33.1355693216429,0.50980140571334,7.76071351742979,5.87121760711682
"736",1.11852723235706,33.2414980941926,0.509792280411178,7.76057412875478,5.89914074581103
"737",1.11852723235706,32.031933586807,0.509800853642644,7.76131000429063,5.89948218227488
"738",1.11852723235706,31.6533047154346,0.509806650532206,7.76404743685972,5.89982012665634
"739",1.11852723235706,30.4305313069621,0.50980159333198,7.76074998894699,5.90165147875131
"740",1.11852723235706,29.8827866574521,0.509796910410865,7.76057605331055,5.91823787056916
"741",1.11852723235706,31.2344358550255,0.509784138371011,7.76056687480255,5.94948002602188
"742",1.11852723235706,33.2696522614799,0.509818161588394,7.76446971831345,5.94930014183783
"743",1.11852723235706,31.9841056287004,0.50980302491432,7.76077225418911,5.95176725378567
"744",1.11852723235706,33.0270269892417,0.509787057649432,7.76057722821126,5.98483993587013
"745",1.11852723235706,35.8674828579079,0.509774718716243,7.76056693680278,5.99018875148814
"746",1.11852723235706,35.759264119521,0.509805047714507,7.76492181728663,5.98957792376655
"747",1.11852723235706,36.1545060658447,0.509790901845925,7.76079608920347,6.02142850921647
"748",1.11852723235706,35.08957842676,0.509802409326202,7.76249164296714,6.02048143592164
"749",1.11852723235706,34.1182136009607,0.509804288117763,7.76270186624932,6.01954462609946
"750",1.11852723235706,33.8030802961903,0.50980795231106,7.76448214706783,6.01861796425728
"751",1.11852723235706,32.3856684855334,0.509802144930615,7.7607821660625,6.01770133628995
"752",1.11852723235706,35.9727435502466,0.509828839561078,7.7576879044864,6.01679462946141
"753",1.11852723235706,36.9846078028895,0.509791081555559,7.76041441487465,6.05063750723268
"754",1.11852723235706,39.2547867519316,0.509779205986663,7.76055834488408,6.07373931373274
"755",1.11852723235706,37.5420237448403,0.509797499921798,7.76056594031603,6.07426811214077
"756",1.11852723235706,37.1802661214783,0.509793585372741,7.76056634113295,6.09945039964033
"757",1.11852723235706,35.5319787714889,0.509800022854044,7.76056636228436,6.09768547514202
"758",1.11852723235706,36.0821888909689,0.509812153121237,7.76575638673461,6.09589797676906
"759",1.11852723235706,34.5919677041922,0.509802273185553,7.7608400818769,6.09642424150902
"760",1.11852723235706,34.2691067247935,0.509794641158096,7.76058080733134,6.12072068336093
"761",1.11852723235706,33.0453951327427,0.509801480273832,7.76150797292294,6.11867396789719
"762",1.11852723235706,32.4356129024981,0.50980563100918,7.76349755345889,6.1166503829019
"763",1.11852723235706,31.4121696862865,0.509799888117659,7.76072099252481,6.12359417889148
"764",1.11852723235706,30.1639058639848,0.509800868384083,7.76057452320739,6.12193721841054
"765",1.11852723235706,29.1971477638738,0.509799662095933,7.76056679405804,6.12673072147076
"766",1.11852723235706,28.3858498874825,0.509798794020135,7.76056638618555,6.13458836016851
"767",1.11852723235706,27.4548074856693,0.509801729378634,7.7612549118782,6.13238441927584
"768",1.11852723235706,28.7469231930849,0.50981688531292,7.76573578211257,6.13020552412618
"769",1.11852723235706,27.6651872212731,0.509803378372779,7.76083899584639,6.12835533837142
"770",1.11852723235706,26.6599282481577,0.509801336453488,7.7605807500243,6.12685631128073
"771",1.11852723235706,26.7885767396893,0.509808956045534,7.76492802893787,6.12474014085088
"772",1.11852723235706,29.7683409328279,0.50977450566529,7.76079641666942,6.10425991100942
"773",1.11852723235706,29.010578241556,0.509799830121953,7.76237814789592,6.10239867905902
"774",1.11852723235706,29.3473592444483,0.509810412850505,7.7655214119314,6.10055834144703
"775",1.11852723235706,33.6166009157342,0.509768329935048,7.76082769649696,6.00793236168297
"776",1.11852723235706,33.3988693745069,0.509803143125351,7.76457056754324,6.00713113630245
"777",1.11852723235706,33.2386917630914,0.509794055432729,7.76077757125403,6.03286527571594
"778",1.11852723235706,32.1932842165711,0.509798049975298,7.76057750878327,6.04090750377429
"779",1.11852723235706,30.881971924303,0.509800692103287,7.76057275604622,6.03974837773848
"780",1.11852723235706,34.5834086019611,0.509771063194764,7.76056670080381,6.0001475171214
"781",1.11852723235706,33.1156991399187,0.509796762028849,7.76058496824199,5.99943001668445
"782",1.11852723235706,31.9801873281708,0.509799037417377,7.76056734524852,6.00518623140578
"783",1.11852723235706,30.9251316521318,0.509802312498904,7.7616380069287,6.00441457404828
"784",1.11852723235706,29.8020200925137,0.50980198031349,7.76112179441904,6.00365121863003
"785",1.11852723235706,35.2554025103423,0.509840230921382,7.73491344792783,6.00289607297453
"786",1.11852723235706,36.0417296059862,0.50979395907744,7.75920863798707,6.03648686301359
"787",1.11852723235706,40.6438637289103,0.509831005978694,7.75273685121236,6.03537602087464
"788",1.11852723235706,43.5061779200737,0.509827230894295,7.76279301994999,6.03427729705878
"789",1.11852723235706,42.1369579482472,0.509801533124998,7.76068383575876,6.04774134971148
"790",1.11852723235706,45.3773007907785,0.509824230574507,7.76226228262901,6.04650739813605
"791",1.11852723235706,44.462170842708,0.509798614468341,7.76065584095745,6.06839527850951
"792",1.11852723235706,46.756227696579,0.50978117628179,7.7605710852075,6.09438088266695
"793",1.11852723235706,45.1965017059975,0.509801491574183,7.7627869039589,6.09263037043211
"794",1.11852723235706,46.2257105616888,0.509814889622404,7.76601285922843,6.0908994300218
"795",1.11852723235706,44.7581687204438,0.509806678733678,7.76322513101525,6.0891878286245
"796",1.11852723235706,46.0726583223129,0.509786491330598,7.76070662580493,6.12311214833355
"797",1.11852723235706,44.0821700164679,0.509797661253514,7.76057376509065,6.1274296769324
"798",1.11852723235706,43.5702680531224,0.509793179848713,7.76056675405174,6.1540091053726
"799",1.11852723235706,41.9592553513129,0.509797657872312,7.76056638407438,6.16254391914177
"800",1.11852723235706,39.983756454249,0.50980068770898,7.76061221734499,6.16002038647767
"801",1.11852723235706,39.0170762624394,0.509796617172425,7.76056878319311,6.17721187182707
"802",1.11852723235706,37.299084629671,0.509800778655054,7.76079452791102,6.17451925365408
"803",1.11852723235706,37.375120566365,0.509791810564744,7.76057840355343,6.20555995038374
"804",1.11852723235706,36.8860784780727,0.509805844287259,7.76424615976859,6.20253785374696
"805",1.11852723235706,36.585291694475,0.509808767250319,7.76480614666541,6.19955104965451
"806",1.11852723235706,36.6136127854028,0.509810836449523,7.76540792166042,6.19659908673774
"807",1.11852723235706,35.7487791635232,0.509806511447509,7.7634363086943,6.19368152020481
"808",1.11852723235706,37.2212162893231,0.509817823046224,7.76580798669583,6.19079791172886
"809",1.11852723235706,36.134061868786,0.50980049725043,7.76084280159041,6.20246870636102
"810",1.11852723235706,35.3738329321154,0.50980543025845,7.76343191650267,6.19948270931635
"811",1.11852723235706,41.4266508220287,0.509762328662447,7.76071753111613,6.00643203879401
"812",1.11852723235706,39.8170984541046,0.509797071726708,7.76173332502926,6.00564697218511
"813",1.11852723235706,38.0203075798569,0.509800729703944,7.76076983820631,6.0048703565249
"814",1.11852723235706,36.365620126058,0.509800788206288,7.76057710072406,6.00542837103784
"815",1.11852723235706,34.8711713395554,0.509800529248432,7.7605669300752,6.00719312474796
"816",1.11852723235706,37.5997470378671,0.509823390294264,7.76277992688752,6.0063998624649
"817",1.11852723235706,40.7185164183605,0.509827918345521,7.76197407149225,6.00561514228121
"818",1.11852723235706,40.5167809650976,0.509796699021402,7.76064063725702,6.03356766117481
"819",1.11852723235706,40.7248334956108,0.509790189762185,7.76057028291211,6.06517638631152
"820",1.11852723235706,39.6405733180208,0.509795478323112,7.76056657029485,6.08096091511927
"821",1.11852723235706,37.8480174969051,0.509800154361682,7.7605663743774,6.0801054211028
"822",1.11852723235706,36.2865869533803,0.509801691110039,7.76108441330834,6.07851410166552
"823",1.11852723235706,40.5568031214541,0.509830496380687,7.75537847812591,6.07694046895131
"824",1.11852723235706,51.554347232067,0.509859401575919,7.664264377836,6.07538431472997
"825",1.11852723235706,52.4171198639941,0.509795890335413,7.75542732095223,6.10988159028672
"826",1.11852723235706,56.2952623219011,0.509823967558922,7.76152593209939,6.10795715198242
"827",1.11852723235706,53.2832739689735,0.509804232920956,7.76061699503226,6.10724231022995
"828",1.11852723235706,52.1930729634896,0.509807992052078,7.76439259572265,6.10534756432457
"829",1.11852723235706,53.1250814233935,0.509788094753506,7.76076818797872,6.14012644206069
"830",1.11852723235706,50.4112170012138,0.509798783749798,7.76057701364438,6.14006990369854
"831",1.11852723235706,51.3101605242831,0.509786930132873,7.76056692547995,6.17521833080615
"832",1.11852723235706,50.1425124245397,0.50979304936445,7.76056639312078,6.19780976216976
"833",1.11852723235706,50.7692107073171,0.509812269658817,7.76587186067906,6.19487809341856
"834",1.11852723235706,51.2764229865841,0.509790375669989,7.76084616819442,6.23015078354985
"835",1.11852723235706,48.9444495620768,0.509800921476137,7.76156710707689,6.22684003547622
"836",1.11852723235706,48.9656345497916,0.509811052295778,7.76558982196152,6.22356830197495
"837",1.11852723235706,46.7254329536464,0.509801463108745,7.76083130241713,6.22606861064514
"838",1.11852723235706,50.8111475538726,0.509774797340217,7.76058034406141,6.21564814692319
"839",1.11852723235706,49.7937411245732,0.509790779719047,7.76056710122802,6.23991187609536
"840",1.11852723235706,60.7645469589813,0.509750408730795,7.76056640239513,5.75223851245826
"841",1.11852723235706,58.6803419416888,0.50978916491511,7.76056636551721,5.76938743154004
"842",1.11852723235706,56.5249765856854,0.509803118026089,7.76305410497969,5.77101092583579
"843",1.11852723235706,55.4948315091451,0.509808546526096,7.76481287548069,5.77261894838772
"844",1.11852723235706,52.4818029550853,0.509802225385226,7.76079471447502,5.77421163203283
"845",1.11852723235706,52.5444483014495,0.509790445158055,7.76057841339804,5.80384076463763
"846",1.11852723235706,51.216123322765,0.509804981507658,7.76393862443916,5.80513276331008
"847",1.11852723235706,49.4420729808331,0.509805171174703,7.76308158928907,5.80641220286353
"848",1.11852723235706,48.3176342824293,0.509795903324136,7.7606990554958,5.82718450680147
"849",1.11852723235706,45.8773106805231,0.509800290554261,7.76057336561238,5.8285765125168
"850",1.11852723235706,44.4374924150502,0.509804576933626,7.76295755298115,5.82962647464554
"851",1.11852723235706,46.4267961740135,0.509819250894382,7.7653485331899,5.83066608924859
"852",1.11852723235706,44.159994624459,0.509803563680664,7.76081858373714,5.83260402010837
"853",1.11852723235706,42.233815826822,0.5098024829843,7.76130809031146,5.83361425810076
"854",1.11852723235706,40.2364637985822,0.509801279791997,7.76060550160408,5.83483340810733
"855",1.11852723235706,39.6145886788998,0.509794934950754,7.76056842880197,5.85676073762805
"856",1.11852723235706,37.8338069143798,0.509800426271009,7.76071517228137,5.85753087932281
"857",1.11852723235706,41.2850468876181,0.509826019821289,7.76054280940466,5.85829331509906
"858",1.11852723235706,42.1966057930383,0.509791118548377,7.76056512049437,5.89038315234589
"859",1.11852723235706,40.2268999889586,0.509799496538051,7.76056629787035,5.89155977653402
"860",1.11852723235706,43.4801615694858,0.509824396369815,7.76188064526153,5.89197859209194
"861",1.11852723235706,43.2244111656912,0.509796031337278,7.76063570862516,5.91936692931915
"862",1.11852723235706,42.8101842569678,0.509792641380584,7.76057002282887,5.9454098015327
"863",1.11852723235706,41.3882964384767,0.509802764075918,7.76254182844459,5.94527254885632
"864",1.11852723235706,42.286771338978,0.509814448815208,7.76600537977358,5.94513673230613
"865",1.11852723235706,40.3505856679195,0.509802715229876,7.760853205422,5.94662681779574
"866",1.11852723235706,43.3442901821577,0.509778121062814,7.76058149982594,5.95795528357749
"867",1.11852723235706,42.4919567838591,0.509803313467308,7.76400302568992,5.95768636190351
"868",1.11852723235706,41.4734211891097,0.509796649544546,7.76074764719523,5.97597611997687
"869",1.11852723235706,40.6591262863125,0.509794933545904,7.76057592973976,5.99659523277443
"870",1.11852723235706,38.8538669180382,0.509799777668398,7.76056686828164,5.99797116505642
"871",1.11852723235706,43.9703758102977,0.509832889054258,7.75103570576956,5.99727701801364
"872",1.11852723235706,42.0728014374888,0.509806841543666,7.76084056881804,5.99659031465201
"873",1.11852723235706,43.8552214941274,0.509818882042589,7.76544156961479,5.99591097282575
"874",1.11852723235706,44.6975515806496,0.509790316143345,7.7608234879049,6.02954724463868
"875",1.11852723235706,43.6407207984752,0.509794425479532,7.76057993170854,6.0489901840204
"876",1.11852723235706,41.9507789994182,0.509802046480335,7.76191482739488,6.04774253458323
"877",1.11852723235706,40.1062505780626,0.509800570463819,7.76063751189064,6.04977162929719
"878",1.11852723235706,42.9035630609696,0.509778647758126,7.76057011798698,6.06504608203586
"879",1.11852723235706,43.2631534637318,0.5097866287703,7.76056656159164,6.09809260795483
"880",1.11852723235706,41.1897873869506,0.509798967705696,7.76056637391812,6.09652779571626
"881",1.11852723235706,41.081927241026,0.509791948978213,7.76056636401445,6.1262032234715
"882",1.11852723235706,39.415647005685,0.509801029181043,7.76146724238282,6.12409445412308
"883",1.11852723235706,39.847695590477,0.509789835369293,7.76061389859363,6.1577677118753
"884",1.11852723235706,38.015532244526,0.509799507375647,7.76058732242246,6.15529903015936
"885",1.11852723235706,36.9023965644823,0.509797725612218,7.76056746947979,6.16747846969542
"886",1.11852723235706,35.7538172950805,0.50979798765756,7.76056642182804,6.17740614839753
"887",1.11852723235706,34.6051274038638,0.509802873396706,7.76211550382909,6.1747112842793
"888",1.11852723235706,33.5143582303141,0.509799148042727,7.76064809821463,6.18281398185357
"889",1.11852723235706,32.7493494070473,0.509797022187671,7.76057067662529,6.19755881633889
"890",1.11852723235706,31.9310911091635,0.509797260800747,7.76056659107137,6.21002501193765
"891",1.11852723235706,31.7744252614389,0.50979344606127,7.76056637547379,6.23610439608277
"892",1.11852723235706,30.7164849938241,0.509798562533065,7.76056636409655,6.2400972653414
"893",1.11852723235706,29.9921405050123,0.509803862686395,7.76268367158143,6.23666902220807
"894",1.11852723235706,35.3560954610239,0.509839879050748,7.73676532652829,6.23328132394028
"895",1.11852723235706,37.579693820403,0.509786293152603,7.75930692109396,6.25694909590868
"896",1.11852723235706,37.1391278996292,0.509805322855597,7.76430389071196,6.25332082075288
"897",1.11852723235706,36.0780364461892,0.509804821056821,7.7628625089965,6.24973571560005
"898",1.11852723235706,34.7649418047561,0.509803087592359,7.76171041926336,6.24619321180852
"899",1.11852723235706,34.0310066117369,0.509797069251964,7.76062672820671,6.26293520507444
"900",1.11852723235706,40.9961623890205,0.509755789079707,7.76056954893263,5.92643743449637
"901",1.11852723235706,39.3243150061803,0.509793272743908,7.76056653156225,5.93173740416877
"902",1.11852723235706,37.9115586588482,0.509797981809647,7.76056637233345,5.94010459867946
"903",1.11852723235706,36.6759984234673,0.509803070131968,7.76224306940404,5.94002278700224
"904",1.11852723235706,37.8984565540797,0.509786229399231,7.76065482745356,5.97257874798511
"905",1.11852723235706,37.9355368458242,0.509789808225729,7.76057103172525,6.00181490617701
"906",1.11852723235706,36.2358553135206,0.509799464320856,7.76056660981023,6.00114764985121
"907",1.11852723235706,34.6755170763217,0.509801022990851,7.76066577736762,6.00041940969439
"908",1.11852723235706,33.3822292886416,0.509802162129434,7.76133599396994,5.99969899007916
"909",1.11852723235706,33.4834548183163,0.509809844241769,7.7652169420958,5.99898630446837
"910",1.11852723235706,32.0854264882625,0.509802408776582,7.76081164708401,5.9982842354945
"911",1.11852723235706,31.4469718598376,0.509805345599243,7.76323106831941,5.99758673047056
"912",1.11852723235706,33.3321492262233,0.509820375155988,7.76499850526594,5.99689670620117
"913",1.11852723235706,33.3080244265358,0.509795788621047,7.76080013200924,6.02437686373356
"914",1.11852723235706,34.9473717394295,0.509817350114362,7.765416799591,6.02339781125555
"915",1.11852723235706,35.7091157412889,0.509790754755522,7.76082218222917,6.05715396736655
"916",1.11852723235706,35.8154666490441,0.509790383905907,7.76057986281113,6.08723453353172
"917",1.11852723235706,34.3024491432481,0.509799319472933,7.76056707583216,6.08674535361348
"918",1.11852723235706,33.234002390058,0.509803054879953,7.76210688366842,6.08508010701021
"919",1.11852723235706,35.0408308285763,0.509782796290536,7.76064764348359,6.11381559223167
"920",1.11852723235706,35.6899943538016,0.509810126986794,7.76582117602643,6.1118468362342
"921",1.11852723235706,34.1604476403423,0.509802548063787,7.76091701658627,6.10990026773836
"922",1.11852723235706,33.3423629511833,0.509797646293783,7.76058486694178,6.12428008110677
"923",1.11852723235706,33.4466798099321,0.509791712176134,7.76056733990285,6.1542431460501
"924",1.11852723235706,32.2763104454201,0.509798390253295,7.76056641499017,6.1584832475812
"925",1.11852723235706,30.9636938809202,0.50980070001183,7.76056636618186,6.15618014159183
"926",1.11852723235706,31.0217037082725,0.509792780586757,7.76056636360621,6.18499901923541
"927",1.11852723235706,29.8305630052624,0.5098001960165,7.76077839033564,6.18221624651591
"928",1.11852723235706,32.5524614886029,0.509776219049794,7.76057755200471,6.18386912361042
"929",1.11852723235706,31.3921420303139,0.509796394556962,7.76056695388955,6.18658390472628
"930",1.11852723235706,31.2032624604805,0.509806998499126,7.76445449440525,6.18378275042749
"931",1.11852723235706,30.216927089434,0.509803624037247,7.76194354938087,6.18101407653814
"932",1.11852723235706,30.3373185099856,0.509792921915511,7.76063902709718,6.21064074073162
"933",1.11852723235706,33.406993245443,0.50977329988531,7.76057019794423,6.19841696181465
"934",1.11852723235706,32.5322399457174,0.509800078785243,7.76262970510781,6.19547821784782
"935",1.11852723235706,32.5664083975503,0.509809041872494,7.76512766591486,6.19257370171781
"936",1.11852723235706,31.2435215472195,0.509802378004313,7.760871902488,6.18970297754349
"937",1.11852723235706,32.9978647701129,0.509782682367783,7.76058248641682,6.21912607972952
"938",1.11852723235706,31.9076922106693,0.509800065085792,7.76173747108315,6.21594506558697
"939",1.11852723235706,30.7219523398366,0.509800291414561,7.76062815537208,6.21634326999376
"940",1.11852723235706,30.3497963953248,0.509806307828557,7.76388611494852,6.21319491965633
"941",1.11852723235706,30.1193297507944,0.509807984671065,7.76442970690547,6.21008348322838
"942",1.11852723235706,31.4556726225187,0.50978587877841,7.76077014463717,6.24428515625692
"943",1.11852723235706,30.1915763147911,0.509798903542439,7.76057711689389,6.24081157396764
"944",1.11852723235706,29.2191857665411,0.509802162700796,7.76154875431146,6.23737487656729
"945",1.11852723235706,30.4794729784384,0.509785413361666,7.76061819910893,6.27227945156267
"946",1.11852723235706,30.5520056190669,0.509806826672153,7.76499799484921,6.26846815688566
"947",1.11852723235706,30.1992857054746,0.509807344396666,7.76415594731713,6.26470245561598
"948",1.11852723235706,29.0230329249945,0.509802086388702,7.76078794587433,6.2609817421389
"949",1.11852723235706,31.1287932756234,0.509780007404661,7.76057805623243,6.28162968938805
"950",1.11852723235706,34.0356148570925,0.509772668568424,7.76056698049795,6.27834819557998
"951",1.11852723235706,33.7167387061808,0.509790401387952,7.76056639602412,6.30300865691507
"952",1.11852723235706,32.555966182064,0.509801029802158,7.76162445926923,6.2988275334852
"953",1.11852723235706,32.6580907275646,0.509792327097143,7.76062219318028,6.32965918257464
"954",1.11852723235706,31.6840520141405,0.509802047349866,7.76211962804846,6.32515414712282
"955",1.11852723235706,31.9506532168249,0.509791590186139,7.76064831577529,6.35802312060331
"956",1.11852723235706,30.6908157881171,0.509799505594574,7.76057068810591,6.3544853833702
"957",1.11852723235706,29.6161192975287,0.509799973609984,7.76056659167721,6.3547546569169
"958",1.11852723235706,36.2061817201049,0.509846075599878,7.71345942666132,6.34994195541058
"959",1.11852723235706,36.798880874623,0.509795814300272,7.75806694860074,6.38617540678662
"960",1.11852723235706,36.1271078916437,0.509795146935954,7.76043442966188,6.40618913712843
"961",1.11852723235706,34.9549380342958,0.509802447206794,7.76210155214364,6.40073795354627
"962",1.11852723235706,35.1799298705654,0.509791530788173,7.76064736223434,6.43431945880872
"963",1.11852723235706,38.6185995240663,0.509825481380422,7.75976368350575,6.42851466403944
"964",1.11852723235706,38.0094859837306,0.509810417086251,7.76404322795433,6.42278309072189
"965",1.11852723235706,36.3467564978455,0.509802252195705,7.7607497670171,6.4185210712903
"966",1.11852723235706,39.0044800164554,0.509778781012584,7.76057604159964,6.43302890106791
"967",1.11852723235706,40.5202600168302,0.509813775769535,7.76565558141161,6.42724039664249
"968",1.11852723235706,41.0743981934244,0.509814473751203,7.76606470431325,6.42152487937068
"969",1.11852723235706,44.5059129637432,0.509827151595212,7.7616858750794,6.41588130113016
"970",1.11852723235706,42.4981489026472,0.509805677645728,7.76117104074326,6.41030863146336
"971",1.11852723235706,40.4976062897802,0.509801670329694,7.76059827051446,6.40555576664497
"972",1.11852723235706,43.1344122826634,0.509821989982189,7.76380357998201,6.40011250919204
"973",1.11852723235706,42.4184004869887,0.509797835922155,7.76073713035017,6.42431912556701
"974",1.11852723235706,40.3968711192015,0.509800652517498,7.76057537478052,6.41864401051365
"975",1.11852723235706,39.2346536608718,0.509797480492326,7.7605668389961,6.43172064766631
"976",1.11852723235706,39.8230511988851,0.509812177230408,7.76580625128455,6.42594865036134
"977",1.11852723235706,38.183892621308,0.509803717386146,7.76155312400697,6.42024940292887
"978",1.11852723235706,36.8724352203372,0.509803603238584,7.76209692916121,6.41462186125023
"979",1.11852723235706,36.8366573766215,0.509792869266276,7.76064711836193,6.4456756847275
"980",1.11852723235706,35.3597656248621,0.509799101568832,7.76057062491871,6.44448310296529
"981",1.11852723235706,34.2586102138155,0.509803173110993,7.76220425856767,6.43854979020966
"982",1.11852723235706,32.8194751966562,0.509801496594623,7.76070033445605,6.43269155194607
"983",1.11852723235706,34.1060031152046,0.509816311769293,7.7657881423698,6.42690730471841
"984",1.11852723235706,33.5477064540294,0.509808352901103,7.76401047792507,6.42119598343642
"985",1.11852723235706,32.1577995376662,0.509802264384352,7.76080330678673,6.41555654101076
"986",1.11852723235706,30.8850901888997,0.509801063516135,7.76057886679645,6.41135929691923
"987",1.11852723235706,30.5506517168567,0.509795337102471,7.76056702327189,6.43357092246184
"988",1.11852723235706,30.6982136133369,0.50980874757902,7.7651463196641,6.42777557704054
"989",1.11852723235706,36.3512097399626,0.509841549417726,7.73417962783512,6.42205331714834
"990",1.11852723235706,36.1950207744854,0.509814645698503,7.76346271161885,6.41640309300223
"991",1.11852723235706,35.0124175488586,0.509800873105288,7.76071915512362,6.42300894822526
"992",1.11852723235706,36.7367469261626,0.509818343889418,7.76534202348192,6.41734670280643
"993",1.11852723235706,36.5284916706176,0.509795963886555,7.76081824059129,6.44586859112167
"994",1.11852723235706,35.0187715964115,0.509799848686052,7.76057965482011,6.44300280988761
"995",1.11852723235706,33.6411000937224,0.509800227579684,7.76056706485636,6.44124509070296
"996",1.11852723235706,32.2606348044125,0.509801167099628,7.76069018913224,6.4353527655194
"997",1.11852723235706,32.80778877022,0.509789722327867,7.76057289774162,6.4717319091051
"998",1.11852723235706,34.7525180516649,0.50978000591333,7.76056670828116,6.50011031554507
"999",1.11852723235706,36.1399248578163,0.509781890550014,7.76056638165904,6.53670021450671
"1000",1.11852723235706,34.9410375545686,0.50980036896371,7.76201720770378,6.5295828756444
"1001",1.11852723235706,33.5226553519731,0.509800569679894,7.76064291284039,6.52530672421491
"1002",1.11852723235706,32.1865695421945,0.509801430413165,7.76085309179855,6.51833739753544
"1003",1.11852723235706,31.2397446127252,0.50979888300034,7.76058149383034,6.52453757113203
"1004",1.11852723235706,31.3654431471513,0.509809224827428,7.76513432950681,6.51757821918263
"1005",1.11852723235706,30.1462948623501,0.509802064949139,7.76080729216211,6.51224682562892
"1006",1.11852723235706,31.8790554028851,0.50981925057415,7.76511225450848,6.50544656778578
"1007",1.11852723235706,30.7465775161361,0.509804760901723,7.76152295063668,6.49873409223266
"1008",1.11852723235706,29.7376566846574,0.509802990983617,7.76157899797813,6.49210809620561
"1009",1.11852723235706,31.2000173985553,0.50978431727341,7.76061979472428,6.52706335295761
"1010",1.11852723235706,29.9779477762558,0.509798835612326,7.760689576501,6.52007123729566
"1011",1.11852723235706,28.8098220505616,0.509800795920066,7.76057286541353,6.51319069198304
"1012",1.11852723235706,27.774870039589,0.509801487683337,7.7608672738858,6.50637823644398
"1013",1.11852723235706,30.6936034693748,0.509827028867617,7.75967792608727,6.4996537444981
"1014",1.11852723235706,35.5053307922424,0.509768615195402,7.76051947518883,6.34893253116986
"1015",1.11852723235706,35.2676530511009,0.509789066764563,7.76056388912068,6.37610089778143
"1016",1.11852723235706,33.8155291595661,0.50979973906186,7.7608422622956,6.37102449420284
"1017",1.11852723235706,32.9820973437209,0.509804301333531,7.7628575627357,6.36601096780947
"1018",1.11852723235706,31.6199896967651,0.509801582498778,7.7606872399647,6.36115161283644
"1019",1.11852723235706,32.2364543352103,0.509789399316756,7.76057274211624,6.39738777404643
"1020",1.11852723235706,33.2120836074234,0.509812834225847,7.76590186704802,6.39204659106225
"1021",1.11852723235706,35.8024850764133,0.509824906569231,7.76326287112599,6.38677201388857
"1022",1.11852723235706,37.8370866708169,0.509823318268776,7.76496664378526,6.38156310112371
"1023",1.11852723235706,41.9359644148314,0.509775354881494,7.76079845235726,6.34382897936713
"1024",1.11852723235706,41.9152570101728,0.509806381760846,7.76532037730739,6.33915053893328
"1025",1.11852723235706,40.4680485375118,0.509799290623536,7.76081709955406,6.34805737876429
"1026",1.11852723235706,38.9275018689746,0.509802515866557,7.76176463783278,6.343327034596
"1027",1.11852723235706,40.6720312192714,0.509818309059901,7.76547442644411,6.3386547507367
"1028",1.11852723235706,46.8277308222005,0.509766821039691,7.76082521984031,6.18791985865734
"1029",1.11852723235706,44.8831373301046,0.509797806956478,7.76179202497795,6.18510320129903
"1030",1.11852723235706,48.7901892202485,0.509774538224623,7.76063103342989,6.17729580210298
"1031",1.11852723235706,48.43109965443,0.509788442898219,7.76056977611917,6.2073929295618
"1032",1.11852723235706,47.2662801471308,0.509804525420654,7.76385873371832,6.20434940767283
"1033",1.11852723235706,44.9159135719328,0.509801503545243,7.76074003867494,6.20200685974282
"1034",1.11852723235706,42.720691753934,0.509801146773288,7.76057552824889,6.1992489124063
"1035",1.11852723235706,40.6848342638243,0.509801100157186,7.76056684709472,6.19649390474075
"1036",1.11852723235706,39.278005636457,0.509798680586573,7.76056638898433,6.20540817969517
"1037",1.11852723235706,39.5227779699163,0.509790425026487,7.76056636480951,6.23856768718803
"1038",1.11852723235706,38.1163337897763,0.509801587096738,7.76199741239727,6.23515754016954
"1039",1.11852723235706,36.6876317914232,0.509799672374008,7.76064186857276,6.23954991346049
"1040",1.11852723235706,36.3777141758385,0.509807782760781,7.76458333000894,6.23612814708302
"1041",1.11852723235706,36.2188475594867,0.509794214151719,7.76077824411961,6.26442122890082
"1042",1.11852723235706,37.5934615777509,0.509784127366173,7.76057754428915,6.29941644165164
"1043",1.11852723235706,37.2646658463417,0.509791447450158,7.7605669534824,6.32607246814405
"1044",1.11852723235706,35.8029740251273,0.509798658218886,7.76056639459849,6.32733625605957
"1045",1.11852723235706,35.1038039804096,0.509795956022421,7.76056636510577,6.34583758495675
"1046",1.11852723235706,33.62758720454,0.509800551771992,7.76069720802827,6.34113449786114
"1047",1.11852723235706,33.4325173443082,0.509793838866603,7.7605732681231,6.36797119290009
"1048",1.11852723235706,32.4779634412312,0.509802629609768,7.76234869231414,6.36299543557224
"1049",1.11852723235706,31.1873626075275,0.509801099076681,7.7606603990413,6.35951754909058
"1050",1.11852723235706,30.4647750589015,0.509804387504512,7.76278103630552,6.35464616751771
"1051",1.11852723235706,29.6159155826065,0.509803849377672,7.76225834456911,6.34983480156376
"1052",1.11852723235706,31.8020162556043,0.50982230164555,7.7638953792055,6.34508261785988
"1053",1.11852723235706,30.6549330987189,0.509805089129286,7.7613745387447,6.34038879653192
"1054",1.11852723235706,31.1285043659157,0.509812163242527,7.76568055170707,6.33575253094411
"1055",1.11852723235706,32.2937660823045,0.509787622027953,7.76083608473128,6.37219407359543
"1056",1.11852723235706,31.3389401483863,0.509796876744058,7.76058059641217,6.37931027834158
"1057",1.11852723235706,31.0274314209542,0.50979447517917,7.76056711454471,6.40239308293497
"1058",1.11852723235706,30.7571475772672,0.509806151070631,7.76420844983008,6.39698938035253
"1059",1.11852723235706,31.5205408359437,0.509789191852106,7.76075847878258,6.43417637947485
"1060",1.11852723235706,30.6383787123031,0.50979691240823,7.76057650130611,6.44186576314154
"1061",1.11852723235706,30.8142489251649,0.509809161922956,7.76520239993014,6.43596558446459
"1062",1.11852723235706,30.5659445209342,0.509795987264219,7.76081088049985,6.46013471519332
"1063",1.11852723235706,29.397306673754,0.509800131492983,7.76057926644479,6.45548519108996
"1064",1.11852723235706,28.6914921615714,0.509798070942085,7.76056704436157,6.46523998407197
"1065",1.11852723235706,30.7596112268855,0.509779565075769,7.76056639939425,6.48685234853961
"1066",1.11852723235706,29.94287442153,0.509800519327012,7.76233393896653,6.48037901494483
"1067",1.11852723235706,29.535962112067,0.509795961114531,7.76065962081323,6.49983581181283
"1068",1.11852723235706,28.3960631048947,0.509800375607408,7.76057128466909,6.49321577718518
"1069",1.11852723235706,29.5762386617833,0.509785591939747,7.76056662315825,6.53061859095769
"1070",1.11852723235706,29.4664369767032,0.509805561086375,7.76451344786768,6.52358031778046
"1071",1.11852723235706,31.7238893671834,0.509823015126628,7.76373565913748,6.51663337687013
"1072",1.11852723235706,30.9762622421674,0.509800940670218,7.76073354874946,6.52841437336138
"1073",1.11852723235706,29.7641569702606,0.50980097003117,7.76057518578414,6.52224259343417
"1074",1.11852723235706,29.5875862314129,0.509807422428248,7.76435068614833,6.51531299077809
"1075",1.11852723235706,28.6629381435677,0.509800557986969,7.76076597830877,6.51720614137085
"1076",1.11852723235706,29.6201943969849,0.509787106865002,7.76057689704384,6.55559544769173
"1077",1.11852723235706,29.7119418085277,0.509790780654753,7.76056691932687,6.58638458320026
"1078",1.11852723235706,28.6105591702417,0.509799951050197,7.76081375280592,6.57861624362719
"1079",1.11852723235706,29.4462125171414,0.509787820274075,7.76057941800994,6.61735375144348
"1080",1.11852723235706,29.3523808367699,0.509792141586631,7.76056705235975,6.64434164316637
"1081",1.11852723235706,29.8534987468164,0.509810356868552,7.7656538222739,6.63580270688356
"1082",1.11852723235706,33.730705843417,0.509770910740438,7.76083467584814,6.55890335782095
"1083",1.11852723235706,34.6214092130653,0.509809648652109,7.76591276462926,6.55149620788772
"1084",1.11852723235706,42.225844108469,0.509847814261927,7.71240066867766,6.54418594191225
"1085",1.11852723235706,41.1370832276376,0.509812202319407,7.76078055656812,6.53697109596991
"1086",1.11852723235706,40.9909217364679,0.509794073866006,7.7605776663128,6.56871185019588
"1087",1.11852723235706,41.2753233688537,0.509810397749022,7.76560905645707,6.56117609975098
"1088",1.11852723235706,40.1305600492253,0.509806242481036,7.76333109440413,6.55373918272127
"1089",1.11852723235706,38.2984393809423,0.509802005643781,7.76080508456191,6.54639960025295
"1090",1.11852723235706,40.0886009528415,0.509783336081492,7.76057896060583,6.57976530476394
"1091",1.11852723235706,46.7819358875269,0.509759153167475,7.76056702822227,6.3569130939116
"1092",1.11852723235706,45.2180474753265,0.509791601501112,7.76056639854256,6.36935419786032
"1093",1.11852723235706,48.220818058284,0.509821286743922,7.76332798612046,6.36436133750867
"1094",1.11852723235706,45.9106951477254,0.509803479752249,7.76071205017155,6.36279416141008
"1095",1.11852723235706,44.7695406113352,0.509796456450015,7.76057405132908,6.38207976813307
"1096",1.11852723235706,44.0122494718853,0.509793974751153,7.76056676915672,6.40668572775486
"1097",1.11852723235706,43.1204410596839,0.50980559235741,7.76398340011495,6.40122832863232
"1098",1.11852723235706,42.1565715456007,0.509806790151571,7.76391778707839,6.39583918341239
"1099",1.11852723235706,40.2480079616833,0.509802402133939,7.76107159482778,6.39051732332354
"1100",1.11852723235706,38.46043015005,0.509801701985684,7.7608783525373,6.38526179569924
"1101",1.11852723235706,36.9474006481545,0.509802370737824,7.76142428297966,6.38007166366395
"1102",1.11852723235706,38.8252012092156,0.509782813090191,7.76061163205164,6.41100808896579
"1103",1.11852723235706,37.339203436959,0.509799862593822,7.76158732381035,6.40549654843373
"1104",1.11852723235706,35.7066524520374,0.509800794601723,7.76062023398209,6.4009471939831
"1105",1.11852723235706,34.5519072019641,0.50979884940413,7.76056920623211,6.40764607872726
"1106",1.11852723235706,33.1979567891657,0.509800118397177,7.7605665134777,6.40605821899416
"1107",1.11852723235706,33.4939705337148,0.509790972874693,7.76056637137912,6.44008712413819
"1108",1.11852723235706,32.9167606371997,0.509804393521292,7.76360528828713,6.43420944696237
"1109",1.11852723235706,31.8166776941931,0.509803154068224,7.76183815687676,6.42840604109304
"1110",1.11852723235706,31.8304812818191,0.509793281543443,7.76063346714684,6.45827284019182
"1111",1.11852723235706,30.6959473579949,0.509800932243479,7.76126492623093,6.45216452170575
"1112",1.11852723235706,31.3339357999224,0.509789209037048,7.7606032241801,6.48918421262661
"1113",1.11852723235706,31.6184867681511,0.509789640392861,7.76056830862168,6.52319457753586
"1114",1.11852723235706,30.3481971445018,0.509799425121349,7.76056646611016,6.51643217254543
"1115",1.11852723235706,29.9368212847251,0.509805847053412,7.76371668872342,6.50957780170835
"1116",1.11852723235706,31.6955048876114,0.509782928343056,7.76073254839198,6.53999126534631
"1117",1.11852723235706,31.0169442382661,0.509794651718651,7.76057513299656,6.55372037418664
"1118",1.11852723235706,33.4043361614197,0.509777779574743,7.760566826237,6.56862475730711
"1119",1.11852723235706,32.022164336059,0.50979778239611,7.76061374340613,6.56109015028677
"1120",1.11852723235706,32.9082485131759,0.509813554256321,7.76590054618707,6.55365435931699
"1121",1.11852723235706,32.436518067229,0.509797533301483,7.76084768010456,6.57442238736002
"1122",1.11852723235706,34.2625417228717,0.509781756136321,7.76058120826987,6.60524240078234
"1123",1.11852723235706,35.5912413141634,0.509782433439688,7.76056714683278,6.64290503593313
"1124",1.11852723235706,34.3784643763096,0.509800198219604,7.76185106576641,6.63438534409785
"1125",1.11852723235706,40.8359972314499,0.509841438752627,7.73053580323397,6.62597963143337
"1126",1.11852723235706,43.3384168227545,0.50978608250748,7.75897613970769,6.64856544112718
"1127",1.11852723235706,41.5503356601472,0.509800296698586,7.76147054848858,6.6399698820689
"1128",1.11852723235706,39.6481671090956,0.509800733547684,7.76061407302314,6.63327390288718
"1129",1.11852723235706,38.3633820017319,0.509798319560569,7.76056888111756,6.64115141983491
"1130",1.11852723235706,36.7543979654199,0.509801354879721,7.76103525532487,6.63265520923301
"1131",1.11852723235706,35.2691926650556,0.509801888513573,7.76112495548546,6.62427261174633
"1132",1.11852723235706,33.8691244402635,0.509800561854002,7.76059583888601,6.62028938861786
"1133",1.11852723235706,33.357767758067,0.509806257809164,7.76384045395051,6.61207169560906
"1134",1.11852723235706,31.9802053012443,0.509801810518142,7.76073907476423,6.60443524737433
"1135",1.11852723235706,30.8562868560796,0.509800126585963,7.76057547738464,6.60322817555095
"1136",1.11852723235706,31.7186356037466,0.509813765624612,7.7658947628626,6.59523711379431
"1137",1.11852723235706,31.9442994795006,0.509812052699051,7.76560389730218,6.58735184419309
"1138",1.11852723235706,33.3261448453766,0.509786381226997,7.76083204432698,6.62421273878945
"1139",1.11852723235706,35.0698686944297,0.509816531867401,7.76525487172287,6.61594278435231
"1140",1.11852723235706,39.6893996615517,0.509770672978343,7.76081364651636,6.52251933609636
"1141",1.11852723235706,39.4631930832919,0.509804446993767,7.7649316785939,6.51558614712118
"1142",1.11852723235706,37.7452967556734,0.509801144049924,7.76079660907185,6.51160503641165
"1143",1.11852723235706,36.0564139760057,0.509801138313967,7.76057953332231,6.50481307058951
"1144",1.11852723235706,34.540148017664,0.509800818996409,7.76056705844485,6.50001521599094
"1145",1.11852723235706,33.4446786375642,0.509803197989648,7.76205711264833,6.49337272776818
"1146",1.11852723235706,32.0612349364062,0.509801363686727,7.76064501794328,6.48725937437183
"1147",1.11852723235706,32.3566024698649,0.509810682332457,7.76544103413869,6.4807808199072
"1148",1.11852723235706,32.749586800819,0.509812634619956,7.76582702614525,6.47438529075478
"1149",1.11852723235706,31.8527153716975,0.509800025164783,7.76084380510722,6.48341468151271
"1150",1.11852723235706,30.9915269271992,0.50980358945771,7.76239773277425,6.47698541749111
"1151",1.11852723235706,37.619307371453,0.509845492794587,7.71805524439314,6.47063845418734
"1152",1.11852723235706,37.5206638430658,0.509815705846891,7.76277108174505,6.46437258429228
"1153",1.11852723235706,42.4440442503538,0.509770294969834,7.76068267865178,6.37293361149645
"1154",1.11852723235706,45.6311513675329,0.50981938308372,7.76247928161191,6.36789645053749
"1155",1.11852723235706,45.839289903344,0.509814181177127,7.76572527168592,6.36292161729785
"1156",1.11852723235706,43.8746470703579,0.509804367692888,7.76179991226677,6.35800824076959
"1157",1.11852723235706,43.5054917411637,0.509793554040346,7.76063144953053,6.38731080390217
"1158",1.11852723235706,41.5222287007102,0.509799473355649,7.76056979807678,6.3852219583114
"1159",1.11852723235706,41.4391676788415,0.509809577034559,7.76521403997333,6.38003232156219
"1160",1.11852723235706,39.6366666673452,0.509803074292884,7.76133323933486,6.37490715204072
"1161",1.11852723235706,41.6979601444708,0.509819766320477,7.76500612108985,6.36984554365409
"1162",1.11852723235706,42.6225119334662,0.509790135598856,7.76080053349328,6.40709630131112
"1163",1.11852723235706,41.0000159907748,0.509801431600547,7.76193480429313,6.40163376254293
"1164",1.11852723235706,40.7151109224278,0.50979318210908,7.76063856575778,6.4309698832091
"1165",1.11852723235706,38.829812370605,0.509799903933756,7.76057017359941,6.42560839292155
"1166",1.11852723235706,37.0976720592931,0.509801122507462,7.76069241035321,6.41991343002911
"1167",1.11852723235706,36.2672238941063,0.509805392475178,7.76335410559996,6.41429011148072
"1168",1.11852723235706,36.6083028658995,0.509791198782602,7.76071342763879,6.44931712303516
"1169",1.11852723235706,36.4304099913791,0.50979185320195,7.7605741240166,6.47836572993011
"1170",1.11852723235706,35.4512292307936,0.509803083376505,7.7628051009622,6.47200111050881
"1171",1.11852723235706,34.0133584154521,0.5098019349054,7.76106798046709,6.46571784323243
"1172",1.11852723235706,34.150104064553,0.509792064296276,7.76059283263802,6.49837557777234
"1173",1.11852723235706,36.1450071315451,0.509818566113549,7.76480515540036,6.49175419588027
"1174",1.11852723235706,34.5731301545837,0.509803720566553,7.7608168367665,6.4852179453537
"1175",1.11852723235706,38.9845337557073,0.50983221359262,7.75318226579608,6.47876556974781
"1176",1.11852723235706,37.3868602784726,0.509804747703746,7.76017636865089,6.47784113725067
"1177",1.11852723235706,43.1618179724502,0.509837166978902,7.74379455925294,6.471483228951
"1178",1.11852723235706,41.120281044002,0.509806561704414,7.75979738313927,6.46520657443275
"1179",1.11852723235706,39.4923834205679,0.50980044058366,7.76052578022437,6.46749856747645
"1180",1.11852723235706,38.4426562427659,0.509797125467157,7.76056422184538,6.48188624363185
"1181",1.11852723235706,39.1717820579281,0.509812757903579,7.7658644480152,6.47547655925337
"1182",1.11852723235706,37.5916912494148,0.509801746613824,7.76084577749791,6.47546319519116
"1183",1.11852723235706,41.9528141191943,0.50977088589811,7.76058110787438,6.42006044836045
"1184",1.11852723235706,39.9805446819299,0.509796785155639,7.76062279384326,6.41443528186732
"1185",1.11852723235706,38.2148642925659,0.509800896987954,7.76086687731644,6.40888076063631
"1186",1.11852723235706,36.9047280414729,0.509803206856892,7.76207127304366,6.403395875942
"1187",1.11852723235706,39.9856931906817,0.509824969057611,7.76193515729878,6.3979796359467
"1188",1.11852723235706,38.936756620962,0.509808507547848,7.76321336769999,6.39263106536897
"1189",1.11852723235706,38.3996694740436,0.509795830269645,7.76070600542373,6.41694100836961
"1190",1.11852723235706,39.2650817875775,0.509813219489006,7.7659041418271,6.41135503352946
"1191",1.11852723235706,39.1563235088122,0.509794306793027,7.76084786961713,6.44231466594839
"1192",1.11852723235706,37.3808266617797,0.509800200461376,7.7606292343624,6.43640880628713
"1193",1.11852723235706,41.1392179537955,0.509827524252851,7.75891163434521,6.4305776245994
"1194",1.11852723235706,42.7828289683589,0.509821361359832,7.76547299096248,6.42482004415687
"1195",1.11852723235706,40.7443454473653,0.50980404763223,7.76082514417407,6.41940479064326
"1196",1.11852723235706,39.1507494696972,0.509803041184479,7.76164881934227,6.41378786477931
"1197",1.11852723235706,39.4344182643898,0.509811541125293,7.76563192594203,6.4082414663814
"1198",1.11852723235706,39.7394856088855,0.509812910885935,7.76586760203814,6.40276458869878
"1199",1.11852723235706,38.6463200357597,0.509799103539821,7.7608459437359,6.41666294967817
"1200",1.11852723235706,42.104181646227,0.509825630007307,7.7607400282853,6.41108046643377
"1201",1.11852723235706,43.9424812120564,0.509821866078847,7.76537124031471,6.40556801868578
"1202",1.11852723235706,55.482389492707,0.509857266906223,7.67098719172508,6.40012460792323
"1203",1.11852723235706,52.468892463457,0.509809345828591,7.75579027839039,6.39474925232223
"1204",1.11852723235706,59.9484092585364,0.509765709173512,7.76031418771563,6.24422684300808
"1205",1.11852723235706,62.1203214087496,0.509777713864321,7.76055305557788,6.27500557859215
"1206",1.11852723235706,58.5876760257598,0.509797757514783,7.76060148292038,6.27116163452215
"1207",1.11852723235706,56.8105228468918,0.50979547551529,7.76056821673488,6.29099454330274
"1208",1.11852723235706,59.4258608501481,0.509780502039072,7.76056646126123,6.31743604023339
"1209",1.11852723235706,63.584914496703,0.509821632982389,7.76186921278857,6.31307992832335
"1210",1.11852723235706,60.916423878354,0.509800905817626,7.76063510550624,6.32494033500644
"1211",1.11852723235706,58.6479047618056,0.509804919255248,7.76310566969774,6.32049286531795
"1212",1.11852723235706,62.5530815413096,0.509824540937387,7.76253436545314,6.31609956732294
"1213",1.11852723235706,64.2732687698566,0.5097877507469,7.76067019293573,6.35035138673344
"1214",1.11852723235706,62.0664369932071,0.509794346921189,7.76057184255517,6.36889269532521
"1215",1.11852723235706,59.1426719364504,0.509802118314764,7.76196971253957,6.36390554302736
"1216",1.11852723235706,60.3140442545857,0.509786224971615,7.76064040730604,6.40063280517335
"1217",1.11852723235706,58.8322468088806,0.509805177659713,7.76431571111473,6.39525110087545
"1218",1.11852723235706,60.807143919103,0.509818692343347,7.76561067469777,6.38993657624
"1219",1.11852723235706,69.6698790639923,0.50976577735697,7.76083240156199,6.21383936116908
"1220",1.11852723235706,69.3013941698724,0.509784938319795,7.76058040206056,6.24800699242201
"1221",1.11852723235706,65.2775959782987,0.50979840705287,7.76056710428866,6.24638796674648
"1222",1.11852723235706,62.1445335148985,0.509802784312354,7.76201710904711,6.24288519439113
"1223",1.11852723235706,58.6072323114777,0.509801336572071,7.76064290763594,6.23963842453867
"1224",1.11852723235706,56.2930266126197,0.509804354241659,7.76273942581076,6.23621561090613
"1225",1.11852723235706,55.1249293637211,0.509808223710117,7.76459461938926,6.23283327123196
"1226",1.11852723235706,55.2243987382466,0.509790952691412,7.7607788393192,6.26739446483794
"1227",1.11852723235706,54.3536684606744,0.509807122504164,7.76482622857241,6.26364159677344
"1228",1.11852723235706,52.4671784483124,0.509798110195801,7.76079104989695,6.27854160450207
"1229",1.11852723235706,49.9143246523718,0.509799813282029,7.76057822002561,6.279315105683
"1230",1.11852723235706,48.0817689137719,0.509797881876026,7.76056698914141,6.29056531455199
"1231",1.11852723235706,48.8044841889592,0.509787577447962,7.76056639648024,6.32703320227191
"1232",1.11852723235706,49.347848417437,0.509811083694668,7.76584217913817,6.32256021269933
"1233",1.11852723235706,51.5450266157887,0.509820672786088,7.76534149968662,6.31814174380081
"1234",1.11852723235706,53.2537503007701,0.509820233681399,7.76583997566702,6.31377705046083
"1235",1.11852723235706,66.2809581188049,0.509855277733184,7.68221154799053,6.30946539939616
"1236",1.11852723235706,62.5229952809538,0.509808639188538,7.75639383242198,6.30747006537446
"1237",1.11852723235706,64.3359607070072,0.509785143808341,7.76034607044428,6.34116265858228
"1238",1.11852723235706,61.9229392448173,0.50979460275047,7.76055473814415,6.35712206076941
"1239",1.11852723235706,59.2212991625307,0.509797426576526,7.76056574998528,6.36660281335845
"1240",1.11852723235706,59.1070842649272,0.509811032343255,7.76563593629384,6.36164397064532
"1241",1.11852723235706,59.9507005592691,0.509816034481225,7.76616856164434,6.35674636151715
"1242",1.11852723235706,57.1579002362747,0.509801330258624,7.76086180575695,6.36248564769514
"1243",1.11852723235706,57.8383439042907,0.509814012637631,7.76591205592582,6.35757765219232
"1244",1.11852723235706,54.6378724618568,0.509803020980624,7.76084973517028,6.35273018168402
"1245",1.11852723235706,51.9654825277534,0.509802406151108,7.76131153708155,6.34794239453422
"1246",1.11852723235706,50.2715002280681,0.509805262000801,7.76321095320006,6.34321346275896
"1247",1.11852723235706,47.6647770320423,0.509801734243246,7.7607058780861,6.33857062584729
"1248",1.11852723235706,57.4835000570698,0.509754538197839,7.76057372563425,5.92913427922029
"1249",1.11852723235706,55.4086958813974,0.509790414841437,7.7605667519696,5.94445413827242
"1250",1.11852723235706,56.3494056825912,0.509785388250342,7.76056638396451,5.97748755419608
"1251",1.11852723235706,53.2699313250857,0.509798842684993,7.76057400666403,5.97701206605871
"1252",1.11852723235706,51.5774367336876,0.509796409315613,7.76056676679972,5.99397154461955
"1253",1.11852723235706,52.5017227227747,0.509813901707631,7.76590104477485,5.99332025506799
"1254",1.11852723235706,49.8017506399944,0.509803304919667,7.76107450116085,5.99267593690593
"1255",1.11852723235706,47.3705290885144,0.509800872124944,7.76059317669997,5.99466945330802
"1256",1.11852723235706,47.1479451640244,0.50980991963962,7.76525531083006,5.994010691045
"1257",1.11852723235706,45.2113962926883,0.509804232235493,7.76210782864515,5.99335898240458
"1258",1.11852723235706,42.9893938548288,0.509801568433777,7.76064769333308,5.99280723341515
"1259",1.11852723235706,53.3711133790615,0.509851027223902,7.69070659038626,5.99216840515898
"1260",1.11852723235706,55.0571336453448,0.509824559384541,7.76189230017972,5.99153641127238
"1261",1.11852723235706,52.4041014183555,0.509805736517331,7.76149379807966,5.99091117666544
"1262",1.11852723235706,56.2790279584939,0.509777275057432,7.76061529966341,5.99522532465657
"1263",1.11852723235706,53.4074993299714,0.509796894588824,7.76056894584755,5.99795288960914
"1264",1.11852723235706,56.4522823278194,0.509821215957793,7.76384589726569,5.99725893857325
"1265",1.11852723235706,53.5543130704789,0.50980336958055,7.76073936179619,5.99975449379912
"1266",1.11852723235706,56.1409632911939,0.509781535426008,7.76057549253093,6.02432099104154
"1267",1.11852723235706,54.3298207723219,0.509802654213201,7.76341622258957,6.02334254497404
"1268",1.11852723235706,59.256817194133,0.509773620760633,7.76071670347944,6.00491096651681
"1269",1.11852723235706,56.7215197798931,0.509799709300392,7.76237936101924,6.00414227095265
"1270",1.11852723235706,54.5906997050894,0.50979738744297,7.76066201678418,6.01810632277444
"1271",1.11852723235706,51.705868451181,0.509800800120827,7.76073145382224,6.01719523306928
"1272",1.11852723235706,49.0839332123504,0.509800702784413,7.76057507523751,6.01806973524722
"1273",1.11852723235706,48.3234421043763,0.509793844486068,7.76056682318902,6.04350398315756
"1274",1.11852723235706,46.1543263153431,0.509798837293289,7.76056638772281,6.04796820525868
"1275",1.11852723235706,54.8627443737187,0.509842817578669,7.72524792441603,6.0467317659658
"1276",1.11852723235706,52.3370831751268,0.509805587316223,7.75869498412683,6.05297405694532
"1277",1.11852723235706,49.5701861118081,0.509801785306614,7.76046758818787,6.05168989507932
"1278",1.11852723235706,54.0284213258501,0.509774095379418,7.76056115095968,6.03765345694453
"1279",1.11852723235706,58.3611497101532,0.509771360606135,7.76056608839493,6.03346183086699
"1280",1.11852723235706,56.0124940902023,0.50979980172197,7.7626334793109,6.03238397531851
"1281",1.11852723235706,53.5342616392271,0.50979882412499,7.76067542082689,6.04070372177395
"1282",1.11852723235706,50.8452704397127,0.509801431939186,7.76104325349963,6.03954682357691
"1283",1.11852723235706,48.1955301000459,0.509801169913562,7.76059152792421,6.03844598767514
"1284",1.11852723235706,46.213404023949,0.509803049987731,7.76192683509023,6.03731375878081
"1285",1.11852723235706,47.1298332921587,0.509814686077723,7.76597413239243,6.03619389208823
"1286",1.11852723235706,46.6195831666942,0.509795173479389,7.7608515585238,6.06345595135704
"1287",1.11852723235706,47.3363893164952,0.509787272627404,7.76058141292361,6.09771793300715
"1288",1.11852723235706,45.1664819085726,0.509800004438915,7.76122722176945,6.09593007110375
"1289",1.11852723235706,44.1871957329605,0.509806329095115,7.76394850246433,6.09416222611766
"1290",1.11852723235706,44.0166273575049,0.509810534592391,7.76537901665989,6.09241415937708
"1291",1.11852723235706,47.1330747570097,0.509824694820289,7.76314776547676,6.09068563535531
"1292",1.11852723235706,45.2890013161788,0.509802302314822,7.76070254562132,6.09939197289583
"1293",1.11852723235706,43.2114853712195,0.509801979414913,7.7610728618164,6.09758535501473
"1294",1.11852723235706,42.7701319454696,0.509793637073511,7.76059309020062,6.12444798354932
"1295",1.11852723235706,46.6399538271751,0.509825501032588,7.76006119348287,6.1223590957286
"1296",1.11852723235706,44.5343123048933,0.509805659137989,7.76124517773553,6.12029385034
"1297",1.11852723235706,42.8832852120237,0.509804110840163,7.76222612402126,6.11825196020878
"1298",1.11852723235706,42.3148717091293,0.509794588280821,7.76065393357539,6.14354136715351
"1299",1.11852723235706,40.3011121197638,0.509800176259755,7.76057098455559,6.14124499894673
"1300",1.11852723235706,39.3996447560319,0.5098056635413,7.76356602789702,6.13896527790087
"1301",1.11852723235706,38.839615275629,0.509807913977507,7.76442326106602,6.13671153211363
"1302",1.11852723235706,38.0162035421899,0.509806838099505,7.76379166269729,6.13448344250992
"1303",1.11852723235706,38.9318746670916,0.509815064091165,7.7660715555658,6.13228069440864
"1304",1.11852723235706,37.2501679518995,0.509802697532685,7.76085669318875,6.13245282952838
"1305",1.11852723235706,36.5939968455072,0.509806556466319,7.76384747368416,6.13027315729122
"1306",1.11852723235706,35.1978853154437,0.50980306882676,7.76157255953905,6.12811823399209
"1307",1.11852723235706,39.0129508319503,0.509772752713757,7.76061945504178,6.09950502829076
